Flight time (us) , Calculated , Experiment
   3990.3940000000002       ,   0.12507727266527946       ,   0.15003000000000000     
   3994.1390000000001       ,   0.12504910329075467       ,   0.15043999999999999     
   3997.8860000000000       ,   0.12501629897370337       ,   0.15013000000000001     
   4001.6369999999997       ,   0.12498449371813550       ,   0.14829999999999999     
   4005.3910000000005       ,   0.12495383372081875       ,   0.14918000000000001     
   4009.1500000000001       ,   0.12492451968736953       ,   0.15082999999999999     
   4012.9110000000001       ,   0.12489697459984481       ,   0.15228000000000000     
   4016.6760000000004       ,   0.12487166786694194       ,   0.15304000000000001     
   4020.4440000000004       ,   0.12484962569044647       ,   0.15329999999999999     
   4024.2170000000001       ,   0.12483241555254887       ,   0.15187999999999999     
   4027.9920000000002       ,   0.12482247228829337       ,   0.15038000000000001     
   4031.7719999999999       ,   0.12482317991561241       ,   0.15035999999999999     
   4035.5540000000001       ,   0.12483867960304612       ,   0.15084000000000000     
   4039.3410000000003       ,   0.12487311521365034       ,   0.15100000000000000     
   4043.1299999999997       ,   0.12492935030313169       ,   0.15126999999999999     
   4046.9239999999995       ,   0.12500805027973033       ,   0.15262999999999999     
   4050.7220000000002       ,   0.12510777324049052       ,   0.15146999999999999     
   4054.5220000000004       ,   0.12522662824571068       ,   0.15021000000000001     
   4058.3260000000000       ,   0.12536351078910149       ,   0.15026000000000000     
   4062.1330000000003       ,   0.12551551036261641       ,   0.15018000000000001     
   4065.9450000000002       ,   0.12567709670120802       ,   0.15010000000000001     
   4069.7599999999998       ,   0.12584789735560015       ,   0.15110000000000001     
   4073.5780000000004       ,   0.12603400199996120       ,   0.15306000000000000     
   4077.4000000000001       ,   0.12623310469715643       ,   0.15473000000000001     
   4081.2249999999999       ,   0.12642548480198709       ,   0.15948000000000001     
   4085.0549999999998       ,   0.12657377030445954       ,   0.16672999999999999     
   4088.8869999999997       ,   0.12662379123247156       ,   0.17272999999999999     
   4092.7239999999997       ,   0.12653571249198986       ,   0.17527000000000001     
   4096.5640000000003       ,   0.12633572339459415       ,   0.17287000000000000     
   4100.4069999999992       ,   0.12609871790590388       ,   0.16780000000000000     
   4104.2550000000001       ,   0.12588749598747939       ,   0.16155000000000000     
   4108.1060000000007       ,   0.12572101949946735       ,   0.15689000000000000     
   4111.9600000000000       ,   0.12557938517925946       ,   0.15487000000000001     
   4115.8180000000002       ,   0.12542325424059544       ,   0.15271000000000001     
   4119.6790000000001       ,   0.12522850631658081       ,   0.15043999999999999     
   4123.5450000000001       ,   0.12500986639955497       ,   0.14763000000000001     
   4127.4139999999998       ,   0.12480222177272816       ,   0.14605000000000001     
   4131.2870000000003       ,   0.12463138636047801       ,   0.14482999999999999     
   4135.1630000000005       ,   0.12450596521521036       ,   0.14293000000000000     
   4139.0419999999995       ,   0.12442267095870309       ,   0.14232000000000000     
   4142.9260000000004       ,   0.12437416714749647       ,   0.14194999999999999     
   4146.8119999999999       ,   0.12435182996429080       ,   0.14136000000000001     
   4150.7030000000004       ,   0.12435055330292828       ,   0.14208999999999999     
   4154.5980000000000       ,   0.12436897393680432       ,   0.14294000000000001     
   4158.4960000000001       ,   0.12441056419795340       ,   0.14388000000000001     
   4162.3969999999999       ,   0.12448265589643562       ,   0.14493000000000000     
   4166.3029999999999       ,   0.12459351581004698       ,   0.14535999999999999     
   4170.2120000000004       ,   0.12474956324974208       ,   0.14641999999999999     
   4174.1239999999998       ,   0.12495435025279333       ,   0.14734000000000000     
   4178.0410000000002       ,   0.12520283247938715       ,   0.14828000000000000     
   4181.9610000000002       ,   0.12547359394372720       ,   0.15176000000000001     
   4185.8840000000000       ,   0.12573043759456670       ,   0.15748999999999999     
   4189.8119999999999       ,   0.12592670738872946       ,   0.16542000000000001     
   4193.7430000000004       ,   0.12600104869627474       ,   0.17358999999999999     
   4197.6779999999999       ,   0.12590793004421780       ,   0.17732000000000001     
   4201.6160000000000       ,   0.12567297588346851       ,   0.17519000000000001     
   4205.5580000000000       ,   0.12538541348545770       ,   0.16816999999999999     
   4209.5039999999999       ,   0.12512729796826988       ,   0.16172000000000000     
   4213.4539999999997       ,   0.12493491284127731       ,   0.15845999999999999     
   4217.4069999999992       ,   0.12480413493303714       ,   0.15554999999999999     
   4221.3640000000005       ,   0.12470866290129472       ,   0.15306000000000000     
   4225.3249999999998       ,   0.12462189606847665       ,   0.15160000000000001     
   4229.2889999999998       ,   0.12453915593378677       ,   0.15095000000000000     
   4233.2569999999996       ,   0.12447622217441454       ,   0.15013000000000001     
   4237.2290000000003       ,   0.12444948557229718       ,   0.14904000000000001     
   4241.2049999999999       ,   0.12446601549938287       ,   0.14962000000000000     
   4245.1830000000000       ,   0.12452572681964626       ,   0.15003000000000000     
   4249.1669999999995       ,   0.12462533726600350       ,   0.15159000000000000     
   4253.1530000000002       ,   0.12476248380960368       ,   0.15301000000000001     
   4257.1430000000000       ,   0.12494250393089136       ,   0.15337000000000001     
   4261.1369999999997       ,   0.12517216544541290       ,   0.15426000000000001     
   4265.1360000000004       ,   0.12544411176547765       ,   0.15612999999999999     
   4269.1379999999999       ,   0.12573173359681034       ,   0.15844000000000000     
   4273.1430000000000       ,   0.12599449665495713       ,   0.16150000000000000     
   4277.1530000000002       ,   0.12617837602576620       ,   0.16567999999999999     
   4281.1660000000002       ,   0.12623128343069759       ,   0.16775999999999999     
   4285.1819999999998       ,   0.12616552377713622       ,   0.16661000000000001     
   4289.2029999999995       ,   0.12607156419533883       ,   0.16253000000000001     
   4293.2269999999999       ,   0.12603675780268514       ,   0.15831000000000001     
   4297.2560000000003       ,   0.12608823913364636       ,   0.15833000000000000     
   4301.2870000000003       ,   0.12619679941153114       ,   0.16109000000000001     
   4305.3229999999994       ,   0.12629990095572985       ,   0.16341000000000000     
   4309.3630000000003       ,   0.12632368406328343       ,   0.16603000000000001     
   4313.4050000000007       ,   0.12624256737814968       ,   0.16533999999999999     
   4317.4520000000002       ,   0.12612060504559552       ,   0.16216000000000000     
   4321.5029999999997       ,   0.12604679735733570       ,   0.15789000000000000     
   4325.5580000000000       ,   0.12605717980203990       ,   0.15504000000000001     
   4329.6170000000002       ,   0.12612292726330579       ,   0.15440999999999999     
   4333.6790000000001       ,   0.12617208061027826       ,   0.15440000000000001     
   4337.7449999999999       ,   0.12610804987985713       ,   0.15589000000000000     
   4341.8150000000005       ,   0.12585904873224574       ,   0.15587000000000001     
   4345.8880000000008       ,   0.12545232950665605       ,   0.15429999999999999     
   4349.9660000000003       ,   0.12500063820039484       ,   0.14948000000000000     
   4354.0469999999996       ,   0.12460422761665063       ,   0.14521000000000001     
   4358.1320000000005       ,   0.12430710262402764       ,   0.14285999999999999     
   4362.2209999999995       ,   0.12410889143556278       ,   0.14127000000000001     
   4366.3140000000003       ,   0.12399016524143536       ,   0.14127000000000001     
   4370.4110000000001       ,   0.12393034779277183       ,   0.14157000000000000     
   4374.5120000000006       ,   0.12391421818216339       ,   0.14202999999999999     
   4378.6160000000000       ,   0.12393180626366145       ,   0.14405000000000001     
   4382.7239999999993       ,   0.12397799475856228       ,   0.14258999999999999     
   4386.8359999999993       ,   0.12405248511174716       ,   0.14230999999999999     
   4390.9520000000002       ,   0.12415969320942354       ,   0.14413000000000001     
   4395.0720000000001       ,   0.12431117880216506       ,   0.14751000000000000     
   4399.1949999999997       ,   0.12452123244045384       ,   0.14929999999999999     
   4403.3230000000003       ,   0.12481700652842895       ,   0.14992000000000000     
   4407.4540000000006       ,   0.12523481908247017       ,   0.15010000000000001     
   4411.5889999999999       ,   0.12580087656823194       ,   0.14938000000000001     
   4415.7289999999994       ,   0.12649724316606639       ,   0.14927000000000001     
   4419.8719999999994       ,   0.12725114235363419       ,   0.15495000000000000     
   4424.0180000000000       ,   0.12795429966414973       ,   0.16427000000000000     
   4428.1689999999999       ,   0.12847522075045262       ,   0.17324999999999999     
   4432.3240000000005       ,   0.12866300029822947       ,   0.18099999999999999     
   4436.4830000000002       ,   0.12845641108990846       ,   0.18154999999999999     
   4440.6459999999997       ,   0.12801642410739972       ,   0.17599999999999999     
   4444.8109999999997       ,   0.12760770754542305       ,   0.16797999999999999     
   4448.9809999999998       ,   0.12739300701745049       ,   0.16335000000000000     
   4453.1559999999999       ,   0.12737700642986249       ,   0.16102000000000000     
   4457.3340000000007       ,   0.12745649058543820       ,   0.16052000000000000     
   4461.5159999999996       ,   0.12747562757307193       ,   0.16411999999999999     
   4465.7020000000002       ,   0.12726804019514604       ,   0.16506000000000001     
   4469.8930000000000       ,   0.12676971578365717       ,   0.16261999999999999     
   4474.0859999999993       ,   0.12610082150546473       ,   0.15962000000000001     
   4478.2830000000004       ,   0.12544829423627257       ,   0.15318000000000001     
   4482.4859999999999       ,   0.12493162969727119       ,   0.14820000000000000     
   4486.6910000000007       ,   0.12458227213327927       ,   0.14535000000000001     
   4490.9009999999998       ,   0.12438111476265667       ,   0.14318000000000000     
   4495.1140000000005       ,   0.12429945154386580       ,   0.14291999999999999     
   4499.3320000000003       ,   0.12431998978007969       ,   0.14318000000000000     
   4503.5529999999999       ,   0.12444372575090036       ,   0.14302999999999999     
   4507.7780000000002       ,   0.12468239245793573       ,   0.14279000000000000     
   4512.0079999999998       ,   0.12503847406675864       ,   0.14224000000000001     
   4516.2420000000002       ,   0.12548408134038572       ,   0.14523000000000000     
   4520.4790000000003       ,   0.12596463227995386       ,   0.14729999999999999     
   4524.7200000000003       ,   0.12640952184055537       ,   0.15246999999999999     
   4528.9659999999994       ,   0.12673800415544473       ,   0.15872000000000000     
   4533.2150000000001       ,   0.12686994193494416       ,   0.16214000000000001     
   4537.4679999999998       ,   0.12681684747026750       ,   0.16144000000000000     
   4541.7249999999995       ,   0.12673923050003544       ,   0.15734000000000001     
   4545.9849999999997       ,   0.12682015230528890       ,   0.15407999999999999     
   4550.2510000000002       ,   0.12712907628088493       ,   0.15393000000000001     
   4554.5210000000006       ,   0.12760282226930542       ,   0.15898000000000001     
   4558.7939999999999       ,   0.12809672669672634       ,   0.16627000000000000     
   4563.0709999999999       ,   0.12842746907504513       ,   0.17358000000000001     
   4567.3530000000001       ,   0.12839451023001891       ,   0.18068999999999999     
   4571.6379999999999       ,   0.12791048315342413       ,   0.18032000000000001     
   4575.9269999999997       ,   0.12714055980751032       ,   0.17316000000000001     
   4580.2209999999995       ,   0.12636770581586690       ,   0.16447999999999999     
   4584.5180000000000       ,   0.12577963982042117       ,   0.15651000000000001     
   4588.8199999999997       ,   0.12541650375249755       ,   0.14990000000000001     
   4593.1250000000000       ,   0.12522308038944954       ,   0.14646999999999999     
   4597.4349999999995       ,   0.12510866416761748       ,   0.14383000000000001     
   4601.7479999999996       ,   0.12497957420862982       ,   0.14263999999999999     
   4606.0650000000005       ,   0.12476987991883400       ,   0.14190000000000000     
   4610.3870000000006       ,   0.12448769768944018       ,   0.14061999999999999     
   4614.7129999999997       ,   0.12419784127689247       ,   0.13804000000000000     
   4619.0420000000004       ,   0.12395752190768496       ,   0.13575999999999999     
   4623.3760000000002       ,   0.12378902460743668       ,   0.13572999999999999     
   4627.7139999999999       ,   0.12368940354804013       ,   0.13675999999999999     
   4632.0560000000005       ,   0.12364813662496504       ,   0.13628999999999999     
   4636.4020000000000       ,   0.12365323699428253       ,   0.13611000000000001     
   4640.7520000000004       ,   0.12370418549712710       ,   0.13816000000000001     
   4645.1059999999998       ,   0.12380629114248140       ,   0.13914000000000001     
   4649.4639999999999       ,   0.12396747228385656       ,   0.13997000000000001     
   4653.8260000000000       ,   0.12419377838320728       ,   0.14190000000000000     
   4658.1939999999995       ,   0.12448207497017917       ,   0.14352999999999999     
   4662.5639999999994       ,   0.12480789730807976       ,   0.14544000000000001     
   4666.9380000000001       ,   0.12512561093548150       ,   0.14871000000000001     
   4671.3170000000000       ,   0.12537515969715457       ,   0.15271000000000001     
   4675.6999999999998       ,   0.12548422729087727       ,   0.15673999999999999     
   4680.0879999999997       ,   0.12540946940501302       ,   0.15890000000000001     
   4684.4780000000001       ,   0.12522097803004453       ,   0.15645999999999999     
   4688.8730000000005       ,   0.12506977276387077       ,   0.15311000000000000     
   4693.2729999999992       ,   0.12506897210798115       ,   0.15014000000000000     
   4697.6760000000004       ,   0.12523849790640620       ,   0.15082999999999999     
   4702.0839999999998       ,   0.12551995975263752       ,   0.15501000000000001     
   4706.4949999999999       ,   0.12581373715965863       ,   0.16420000000000001     
   4710.9110000000001       ,   0.12600323000254562       ,   0.17377000000000001     
   4715.3310000000001       ,   0.12596320360251426       ,   0.17957000000000001     
   4719.7550000000001       ,   0.12563799541074389       ,   0.17782999999999999     
   4724.1840000000002       ,   0.12512564509047341       ,   0.17110000000000000     
   4728.6160000000000       ,   0.12459086834419540       ,   0.16092999999999999     
   4733.0529999999999       ,   0.12414407901198939       ,   0.15178000000000000     
   4737.4929999999995       ,   0.12381866235368595       ,   0.14570000000000000     
   4741.9380000000001       ,   0.12359967931550438       ,   0.14230000000000001     
   4746.3870000000006       ,   0.12345752908038496       ,   0.13875999999999999     
   4750.8400000000001       ,   0.12336688244998834       ,   0.13632000000000000     
   4755.2979999999998       ,   0.12331259664331068       ,   0.13469999999999999     
   4759.7600000000002       ,   0.12328832396034069       ,   0.13405000000000000     
   4764.2249999999995       ,   0.12329321818120331       ,   0.13389000000000001     
   4768.6949999999997       ,   0.12332885302347779       ,   0.13370000000000001     
   4773.1700000000001       ,   0.12339426325937029       ,   0.13416000000000000     
   4777.6480000000001       ,   0.12348402103265117       ,   0.13471000000000000     
   4782.1309999999994       ,   0.12358594568331067       ,   0.13642000000000001     
   4786.6169999999993       ,   0.12368245692402477       ,   0.13805999999999999     
   4791.1089999999995       ,   0.12375126431961225       ,   0.14033000000000001     
   4795.6040000000003       ,   0.12376783879064733       ,   0.14283000000000001     
   4800.1030000000001       ,   0.12372628986409155       ,   0.14315000000000000     
   4804.6070000000000       ,   0.12365286868779896       ,   0.14213000000000001     
   4809.1140000000005       ,   0.12358422825697890       ,   0.14105999999999999     
   4813.6260000000002       ,   0.12354693884258847       ,   0.13869000000000001     
   4818.1419999999998       ,   0.12354974001767820       ,   0.13755000000000001     
   4822.6639999999998       ,   0.12358379428801891       ,   0.13630000000000000     
   4827.1879999999992       ,   0.12362991128333595       ,   0.13481000000000001     
   4831.7180000000008       ,   0.12366528334265772       ,   0.13506000000000001     
   4836.2510000000002       ,   0.12366740340406106       ,   0.13627000000000000     
   4840.7879999999996       ,   0.12363296938928814       ,   0.13469999999999999     
   4845.3299999999999       ,   0.12359317075347141       ,   0.13345000000000001     
   4849.8760000000002       ,   0.12359485934194532       ,   0.13450999999999999     
   4854.4270000000006       ,   0.12366722861404481       ,   0.13653000000000001     
   4858.9820000000000       ,   0.12381215489231055       ,   0.13722999999999999     
   4863.5400000000009       ,   0.12400778746252544       ,   0.14124999999999999     
   4868.1030000000001       ,   0.12421848408529285       ,   0.14351000000000000     
   4872.6710000000003       ,   0.12440282315498752       ,   0.14763999999999999     
   4877.2420000000002       ,   0.12451649978653838       ,   0.15250000000000000     
   4881.8180000000002       ,   0.12454100331735218       ,   0.15386000000000000     
   4886.3990000000003       ,   0.12453903481500814       ,   0.15268000000000001     
   4890.9840000000004       ,   0.12463233607946408       ,   0.14951000000000000     
   4895.5719999999992       ,   0.12492550336167124       ,   0.14879000000000001     
   4900.1659999999993       ,   0.12545829493251973       ,   0.14857999999999999     
   4904.7629999999999       ,   0.12618312602779005       ,   0.15012000000000000     
   4909.3649999999998       ,   0.12697321636534845       ,   0.15673999999999999     
   4913.9710000000005       ,   0.12765339967054223       ,   0.16725000000000001     
   4918.5819999999994       ,   0.12800994354709194       ,   0.17494999999999999     
   4923.1970000000001       ,   0.12782547859579768       ,   0.17743999999999999     
   4927.8159999999998       ,   0.12708595140249390       ,   0.17394999999999999     
   4932.4389999999994       ,   0.12608067448112842       ,   0.16472000000000001     
   4937.0670000000000       ,   0.12513794759523084       ,   0.15425000000000000     
   4941.6989999999996       ,   0.12442141502416039       ,   0.14702000000000001     
