Flight time (us) , Calculated , Experiment
   3990.3940000000002       ,   0.12686622167724251       ,   0.15715999999999999     
   3994.1390000000001       ,   0.12693370998834078       ,   0.15780000000000000     
   3997.8860000000000       ,   0.12699543530850119       ,   0.15898999999999999     
   4001.6369999999997       ,   0.12705705919463112       ,   0.15817999999999999     
   4005.3910000000005       ,   0.12711866546958497       ,   0.15698000000000001     
   4009.1500000000001       ,   0.12718042624529016       ,   0.15944000000000000     
   4012.9110000000001       ,   0.12724261665217854       ,   0.16078000000000001     
   4016.6760000000004       ,   0.12730531559137201       ,   0.16044000000000000     
   4020.4440000000004       ,   0.12736909911446631       ,   0.16055000000000000     
   4024.2170000000001       ,   0.12743477056981550       ,   0.16039999999999999     
   4027.9920000000002       ,   0.12750358690307451       ,   0.15811000000000000     
   4031.7719999999999       ,   0.12757787155612932       ,   0.15706999999999999     
   4035.5540000000001       ,   0.12766143179608749       ,   0.15817000000000001     
   4039.3410000000003       ,   0.12776049606058992       ,   0.16006999999999999     
   4043.1299999999997       ,   0.12788346855722016       ,   0.16125000000000000     
   4046.9239999999995       ,   0.12803930553811002       ,   0.16167000000000001     
   4050.7220000000002       ,   0.12823270713504573       ,   0.16095999999999999     
   4054.5220000000004       ,   0.12846008867187042       ,   0.15914000000000000     
   4058.3260000000000       ,   0.12871163550567960       ,   0.15862999999999999     
   4062.1330000000003       ,   0.12897471885551678       ,   0.15959999999999999     
   4065.9450000000002       ,   0.12922466045433359       ,   0.16008000000000000     
   4069.7599999999998       ,   0.12944394538261744       ,   0.15953000000000001     
   4073.5780000000004       ,   0.12968550250330096       ,   0.15998000000000001     
   4077.4000000000001       ,   0.13001775449623823       ,   0.16092999999999999     
   4081.2249999999999       ,   0.13043981028570320       ,   0.16547999999999999     
   4085.0549999999998       ,   0.13088802573938815       ,   0.17321000000000000     
   4088.8869999999997       ,   0.13124431200213965       ,   0.17987000000000000     
   4092.7239999999997       ,   0.13131538360049838       ,   0.18479999999999999     
   4096.5640000000003       ,   0.13103598336188438       ,   0.18459000000000000     
   4100.4069999999992       ,   0.13061565627982638       ,   0.17963000000000001     
   4104.2550000000001       ,   0.13026981022056250       ,   0.17313000000000001     
   4108.1060000000007       ,   0.13006605054329859       ,   0.16816000000000000     
   4111.9600000000000       ,   0.12996957969667544       ,   0.16464000000000001     
   4115.8180000000002       ,   0.12990259737543186       ,   0.16181999999999999     
   4119.6790000000001       ,   0.12978179342856275       ,   0.15986000000000000     
   4123.5450000000001       ,   0.12960073096654429       ,   0.15670999999999999     
   4127.4139999999998       ,   0.12942184773794074       ,   0.15386000000000000     
   4131.2870000000003       ,   0.12928999681558381       ,   0.15248999999999999     
   4135.1630000000005       ,   0.12921277420408667       ,   0.15110000000000001     
   4139.0419999999995       ,   0.12918078684363413       ,   0.14949000000000001     
   4142.9260000000004       ,   0.12918432630148707       ,   0.14932000000000001     
   4146.8119999999999       ,   0.12921881217910366       ,   0.14999000000000001     
   4150.7030000000004       ,   0.12928068422993783       ,   0.15024000000000001     
   4154.5980000000000       ,   0.12936841258871165       ,   0.14957000000000001     
   4158.4960000000001       ,   0.12947969818621680       ,   0.15013000000000001     
   4162.3969999999999       ,   0.12961482162321686       ,   0.15135000000000001     
   4166.3029999999999       ,   0.12977885740605902       ,   0.15209000000000000     
   4170.2120000000004       ,   0.12997728447811943       ,   0.15261000000000000     
   4174.1239999999998       ,   0.13023083971379804       ,   0.15386000000000000     
   4178.0410000000002       ,   0.13058907387544624       ,   0.15531000000000000     
   4181.9610000000002       ,   0.13108014760414613       ,   0.15708000000000000     
   4185.8840000000000       ,   0.13166821555765634       ,   0.16327000000000000     
   4189.8119999999999       ,   0.13226575420652453       ,   0.17171000000000000     
   4193.7430000000004       ,   0.13273763532876570       ,   0.18115999999999999     
   4197.6779999999999       ,   0.13285577378370964       ,   0.18698000000000001     
   4201.6160000000000       ,   0.13251337478139127       ,   0.18656000000000000     
   4205.5580000000000       ,   0.13195216095209153       ,   0.18210000000000001     
   4209.5039999999999       ,   0.13146137220404258       ,   0.17433999999999999     
   4213.4539999999997       ,   0.13114906126747641       ,   0.16866999999999999     
   4217.4069999999992       ,   0.13098994810806455       ,   0.16542000000000001     
   4221.3640000000005       ,   0.13091395052292321       ,   0.16250999999999999     
   4225.3249999999998       ,   0.13084005559740364       ,   0.16159000000000001     
   4229.2889999999998       ,   0.13072848289719002       ,   0.16000000000000000     
   4233.2569999999996       ,   0.13062359199055298       ,   0.15679000000000001     
   4237.2290000000003       ,   0.13058095276416801       ,   0.15531000000000000     
   4241.2049999999999       ,   0.13061371284308981       ,   0.15507000000000001     
   4245.1830000000000       ,   0.13070462830770804       ,   0.15719000000000000     
   4249.1669999999995       ,   0.13082754238424851       ,   0.16050000000000000     
   4253.1530000000002       ,   0.13094854075236198       ,   0.16223000000000001     
   4257.1430000000000       ,   0.13106206123305802       ,   0.16349000000000000     
   4261.1369999999997       ,   0.13123298986717064       ,   0.16384000000000001     
   4265.1360000000004       ,   0.13152707228724819       ,   0.16469000000000000     
   4269.1379999999999       ,   0.13194265892581894       ,   0.16633000000000001     
   4273.1430000000000       ,   0.13241526778083387       ,   0.16936999999999999     
   4277.1530000000002       ,   0.13284383933472982       ,   0.17373000000000000     
   4281.1660000000002       ,   0.13306246863112500       ,   0.17670000000000000     
   4285.1819999999998       ,   0.13293799030584547       ,   0.17746999999999999     
   4289.2029999999995       ,   0.13262589458200941       ,   0.17527000000000001     
   4293.2269999999999       ,   0.13240253671798258       ,   0.17047000000000001     
   4297.2560000000003       ,   0.13239044404625025       ,   0.16874000000000000     
   4301.2870000000003       ,   0.13255323212524200       ,   0.17021000000000000     
   4305.3229999999994       ,   0.13278528801569234       ,   0.17355999999999999     
   4309.3630000000003       ,   0.13293846479341795       ,   0.17702000000000001     
   4313.4050000000007       ,   0.13285314785437835       ,   0.17574000000000001     
   4317.4520000000002       ,   0.13257853945635209       ,   0.17260000000000000     
   4321.5029999999997       ,   0.13234427662957277       ,   0.16966000000000001     
   4325.5580000000000       ,   0.13229513243564661       ,   0.16669000000000000     
   4329.6170000000002       ,   0.13242297065065636       ,   0.16428000000000001     
   4333.6790000000001       ,   0.13263543052163701       ,   0.16389999999999999     
   4337.7449999999999       ,   0.13280108622141992       ,   0.16520000000000001     
   4341.8150000000005       ,   0.13273923951015010       ,   0.16575999999999999     
   4345.8880000000008       ,   0.13237566990838537       ,   0.16309999999999999     
   4349.9660000000003       ,   0.13188266258434270       ,   0.15856999999999999     
   4354.0469999999996       ,   0.13144940556849327       ,   0.15554999999999999     
   4358.1320000000005       ,   0.13114266362002572       ,   0.15187999999999999     
   4362.2209999999995       ,   0.13094922290099564       ,   0.14846999999999999     
   4366.3140000000003       ,   0.13083765864698349       ,   0.14698000000000000     
   4370.4110000000001       ,   0.13078706945552526       ,   0.14674999999999999     
   4374.5120000000006       ,   0.13079107751199681       ,   0.14745000000000000     
   4378.6160000000000       ,   0.13085211303067884       ,   0.14907000000000001     
   4382.7239999999993       ,   0.13097483197823725       ,   0.14882999999999999     
   4386.8359999999993       ,   0.13115836479594267       ,   0.14856000000000000     
   4390.9520000000002       ,   0.13138853080809421       ,   0.15043999999999999     
   4395.0720000000001       ,   0.13164011613918911       ,   0.15314000000000000     
   4399.1949999999997       ,   0.13188221078559878       ,   0.15559000000000001     
   4403.3230000000003       ,   0.13206703486932764       ,   0.15756000000000001     
   4407.4540000000006       ,   0.13220873849386500       ,   0.15786000000000000     
   4411.5889999999999       ,   0.13245014417568901       ,   0.15841000000000000     
   4415.7289999999994       ,   0.13293468696899857       ,   0.15828999999999999     
   4419.8719999999994       ,   0.13368448631516630       ,   0.16172000000000000     
   4424.0180000000000       ,   0.13459270824525515       ,   0.17075000000000001     
   4428.1689999999999       ,   0.13547823917507751       ,   0.18092000000000000     
   4432.3240000000005       ,   0.13607369401016881       ,   0.18948999999999999     
   4436.4830000000002       ,   0.13602344430500179       ,   0.19411999999999999     
   4440.6459999999997       ,   0.13536651245823533       ,   0.19173000000000001     
   4444.8109999999997       ,   0.13463990456861988       ,   0.18434000000000000     
   4448.9809999999998       ,   0.13426815320219665       ,   0.17657000000000000     
   4453.1559999999999       ,   0.13432906431365432       ,   0.17204000000000000     
   4457.3340000000007       ,   0.13467413789754840       ,   0.17088000000000000     
   4461.5159999999996       ,   0.13507696916992079       ,   0.17335000000000000     
   4465.7020000000002       ,   0.13524412077532716       ,   0.17479000000000000     
   4469.8930000000000       ,   0.13486527875405352       ,   0.17413000000000001     
   4474.0859999999993       ,   0.13402468175874629       ,   0.17025999999999999     
   4478.2830000000004       ,   0.13312811804529615       ,   0.16333000000000000     
   4482.4859999999999       ,   0.13243969848209819       ,   0.15834000000000001     
   4486.6910000000007       ,   0.13199991045041778       ,   0.15501000000000001     
   4490.9009999999998       ,   0.13174830836146550       ,   0.15132999999999999     
   4495.1140000000005       ,   0.13161871751381068       ,   0.14984000000000000     
   4499.3320000000003       ,   0.13156698237047995       ,   0.14984000000000000     
   4503.5529999999999       ,   0.13157702805619004       ,   0.15024000000000001     
   4507.7780000000002       ,   0.13168219736314776       ,   0.15003000000000000     
   4512.0079999999998       ,   0.13194714039626027       ,   0.15060000000000001     
   4516.2420000000002       ,   0.13240910122035887       ,   0.15261000000000000     
   4520.4790000000003       ,   0.13304314927814631       ,   0.15456000000000000     
   4524.7200000000003       ,   0.13375469956628341       ,   0.16103000000000001     
   4528.9659999999994       ,   0.13440498292016567       ,   0.16682000000000000     
   4533.2150000000001       ,   0.13478232974659510       ,   0.17138000000000000     
   4537.4679999999998       ,   0.13466485067611539       ,   0.17293000000000000     
   4541.7249999999995       ,   0.13421550481586927       ,   0.16982000000000000     
   4545.9849999999997       ,   0.13389109264107502       ,   0.16592000000000001     
   4550.2510000000002       ,   0.13398569095825971       ,   0.16239000000000001     
   4554.5210000000006       ,   0.13451513547645227       ,   0.16502000000000000     
   4558.7939999999999       ,   0.13530361590378470       ,   0.17405000000000001     
   4563.0709999999999       ,   0.13609190390361509       ,   0.18187999999999999     
   4567.3530000000001       ,   0.13653501758658235       ,   0.18972000000000000     
   4571.6379999999999       ,   0.13621473464898176       ,   0.19189999999999999     
   4575.9269999999997       ,   0.13517717839130083       ,   0.18909999999999999     
   4580.2209999999995       ,   0.13398840752585256       ,   0.18002000000000001     
   4584.5180000000000       ,   0.13307530788059063       ,   0.17088000000000000     
   4588.8199999999997       ,   0.13252978398134349       ,   0.16208000000000000     
   4593.1250000000000       ,   0.13226447763645674       ,   0.15558000000000000     
   4597.4349999999995       ,   0.13215336386585363       ,   0.15168999999999999     
   4601.7479999999996       ,   0.13208133390451868       ,   0.14982000000000001     
   4606.0650000000005       ,   0.13193315339982012       ,   0.15018000000000001     
   4610.3870000000006       ,   0.13166089471494954       ,   0.14942000000000000     
   4614.7129999999997       ,   0.13134566743312023       ,   0.14688999999999999     
   4619.0420000000004       ,   0.13107884543417581       ,   0.14466000000000001     
   4623.3760000000002       ,   0.13088857910132018       ,   0.14269999999999999     
   4627.7139999999999       ,   0.13076351575745132       ,   0.14227999999999999     
   4632.0560000000005       ,   0.13068638818217432       ,   0.14273000000000000     
   4636.4020000000000       ,   0.13064843505831178       ,   0.14465000000000000     
   4640.7520000000004       ,   0.13064457085090092       ,   0.14499999999999999     
   4645.1059999999998       ,   0.13068349139175567       ,   0.14624000000000001     
   4649.4639999999999       ,   0.13078249037811523       ,   0.14770000000000000     
   4653.8260000000000       ,   0.13096873961111435       ,   0.14802999999999999     
   4658.1939999999995       ,   0.13127206348627690       ,   0.14985999999999999     
   4662.5639999999994       ,   0.13169875056065211       ,   0.15150000000000000     
   4666.9380000000001       ,   0.13220598484390983       ,   0.15626000000000001     
   4671.3170000000000       ,   0.13270622394861326       ,   0.16139999999999999     
   4675.6999999999998       ,   0.13307336844461878       ,   0.16649000000000000     
   4680.0879999999997       ,   0.13312542933707927       ,   0.16969999999999999     
   4684.4780000000001       ,   0.13283028083047088       ,   0.16780000000000000     
   4688.8730000000005       ,   0.13247123189723309       ,   0.16447999999999999     
   4693.2729999999992       ,   0.13235158943231953       ,   0.16033000000000000     
   4697.6760000000004       ,   0.13259654163592277       ,   0.15892000000000001     
   4702.0839999999998       ,   0.13316657355221825       ,   0.16258000000000000     
   4706.4949999999999       ,   0.13390760379462088       ,   0.16921000000000000     
   4710.9110000000001       ,   0.13460582778282976       ,   0.17877000000000001     
   4715.3310000000001       ,   0.13497110015706210       ,   0.18878000000000000     
   4719.7550000000001       ,   0.13465892323483949       ,   0.19155000000000000     
   4724.1840000000002       ,   0.13372974817979402       ,   0.18692000000000000     
   4728.6160000000000       ,   0.13266302295330212       ,   0.17746000000000001     
   4733.0529999999999       ,   0.13180008397155876       ,   0.16661999999999999     
   4737.4929999999995       ,   0.13120839253137273       ,   0.15881999999999999     
   4741.9380000000001       ,   0.13082447756022228       ,   0.15170000000000000     
   4746.3870000000006       ,   0.13057245285949579       ,   0.14757000000000001     
   4750.8400000000001       ,   0.13040126206614436       ,   0.14455000000000001     
   4755.2979999999998       ,   0.13028421274249549       ,   0.14232000000000000     
   4759.7600000000002       ,   0.13020977862768834       ,   0.14202999999999999     
   4764.2249999999995       ,   0.13017546272844685       ,   0.14080999999999999     
   4768.6949999999997       ,   0.13018659331644089       ,   0.14032000000000000     
   4773.1700000000001       ,   0.13025162803451948       ,   0.14049000000000000     
   4777.6480000000001       ,   0.13037683853835436       ,   0.14301000000000000     
   4782.1309999999994       ,   0.13055249986603107       ,   0.14335000000000001     
   4786.6169999999993       ,   0.13074738458555493       ,   0.14465000000000000     
   4791.1089999999995       ,   0.13091403912036545       ,   0.14779000000000000     
   4795.6040000000003       ,   0.13098200058011680       ,   0.15303000000000000     
   4800.1030000000001       ,   0.13088006910106054       ,   0.15454999999999999     
   4804.6070000000000       ,   0.13065351606274869       ,   0.15448999999999999     
   4809.1140000000005       ,   0.13042849169956186       ,   0.15296000000000001     
   4813.6260000000002       ,   0.13028400173720797       ,   0.14882999999999999     
   4818.1419999999998       ,   0.13023515605491393       ,   0.14762000000000000     
   4822.6639999999998       ,   0.13026265243707066       ,   0.14507999999999999     
   4827.1879999999992       ,   0.13033381940594915       ,   0.14360000000000001     
   4831.7180000000008       ,   0.13041199826320782       ,   0.14337000000000000     
   4836.2510000000002       ,   0.13045457387582651       ,   0.14287000000000000     
   4840.7879999999996       ,   0.13041899105857802       ,   0.14274999999999999     
   4845.3299999999999       ,   0.13032955786869080       ,   0.14112000000000000     
   4849.8760000000002       ,   0.13028261677331576       ,   0.14140000000000000     
   4854.4270000000006       ,   0.13036058964366085       ,   0.14238000000000001     
   4858.9820000000000       ,   0.13060339284832798       ,   0.14341000000000001     
   4863.5400000000009       ,   0.13100506843654913       ,   0.14630000000000001     
   4868.1030000000001       ,   0.13150738300688580       ,   0.15106000000000000     
   4872.6710000000003       ,   0.13200709774622754       ,   0.15568000000000001     
   4877.2420000000002       ,   0.13236196357145150       ,   0.15989999999999999     
   4881.8180000000002       ,   0.13237944881126379       ,   0.16175000000000000     
   4886.3990000000003       ,   0.13203785643695201       ,   0.16489000000000001     
   4890.9840000000004       ,   0.13164285808702397       ,   0.16200000000000001     
   4895.5719999999992       ,   0.13152156983873906       ,   0.15920999999999999     
   4900.1659999999993       ,   0.13184743564481222       ,   0.15903999999999999     
   4904.7629999999999       ,   0.13265419246100177       ,   0.15801999999999999     
   4909.3649999999998       ,   0.13383599528536572       ,   0.16305000000000000     
   4913.9710000000005       ,   0.13514464780436025       ,   0.17344999999999999     
   4918.5819999999994       ,   0.13623220951071013       ,   0.18345000000000000     
   4923.1970000000001       ,   0.13659639680625504       ,   0.18804000000000001     
   4927.8159999999998       ,   0.13579858614670895       ,   0.18637000000000001     
   4932.4389999999994       ,   0.13420559780810487       ,   0.17671000000000001     
   4937.0670000000000       ,   0.13260651491794062       ,   0.16900000000000001     
   4941.6989999999996       ,   0.13141363847298995       ,   0.15704000000000001     
