Flight time (us) , Calculated , Experiment
   3990.3940000000002       ,   0.12508961753834558       ,   0.15003000000000000     
   3994.1390000000001       ,   0.12506355069843830       ,   0.15043999999999999     
   3997.8860000000000       ,   0.12503163701725756       ,   0.15013000000000001     
   4001.6369999999997       ,   0.12500086641641245       ,   0.14829999999999999     
   4005.3910000000005       ,   0.12497143402403317       ,   0.14918000000000001     
   4009.1500000000001       ,   0.12494362948642034       ,   0.15082999999999999     
   4012.9110000000001       ,   0.12491807846230898       ,   0.15228000000000000     
   4016.6760000000004       ,   0.12489537035865253       ,   0.15304000000000001     
   4020.4440000000004       ,   0.12487696961401031       ,   0.15329999999999999     
   4024.2170000000001       ,   0.12486500887762178       ,   0.15187999999999999     
   4027.9920000000002       ,   0.12486266469539510       ,   0.15038000000000001     
   4031.7719999999999       ,   0.12487416379133068       ,   0.15035999999999999     
   4035.5540000000001       ,   0.12490434673029766       ,   0.15084000000000000     
   4039.3410000000003       ,   0.12495765580842484       ,   0.15100000000000000     
   4043.1299999999997       ,   0.12503661210008102       ,   0.15126999999999999     
   4046.9239999999995       ,   0.12514101676174741       ,   0.15262999999999999     
   4050.7220000000002       ,   0.12526837984895806       ,   0.15146999999999999     
   4054.5220000000004       ,   0.12541570990915549       ,   0.15021000000000001     
   4058.3260000000000       ,   0.12558082650157656       ,   0.15026000000000000     
   4062.1330000000003       ,   0.12576095933964815       ,   0.15018000000000001     
   4065.9450000000002       ,   0.12595335155474643       ,   0.15010000000000001     
   4069.7599999999998       ,   0.12616134206158761       ,   0.15110000000000001     
   4073.5780000000004       ,   0.12639238343038647       ,   0.15306000000000000     
   4077.4000000000001       ,   0.12664099550110025       ,   0.15473000000000001     
   4081.2249999999999       ,   0.12687996810306967       ,   0.15948000000000001     
   4085.0549999999998       ,   0.12706150078961989       ,   0.16672999999999999     
   4088.8869999999997       ,   0.12711966803832009       ,   0.17272999999999999     
   4092.7239999999997       ,   0.12700719707341185       ,   0.17527000000000001     
   4096.5640000000003       ,   0.12675530139263647       ,   0.17287000000000000     
   4100.4069999999992       ,   0.12645372342904995       ,   0.16780000000000000     
   4104.2550000000001       ,   0.12618032903589504       ,   0.16155000000000000     
   4108.1060000000007       ,   0.12596257539941960       ,   0.15689000000000000     
   4111.9600000000000       ,   0.12578263265571601       ,   0.15487000000000001     
   4115.8180000000002       ,   0.12560057465671071       ,   0.15271000000000001     
   4119.6790000000001       ,   0.12539147253133354       ,   0.15043999999999999     
   4123.5450000000001       ,   0.12516917754280044       ,   0.14763000000000001     
   4127.4139999999998       ,   0.12496724159273240       ,   0.14605000000000001     
   4131.2870000000003       ,   0.12480944163911989       ,   0.14482999999999999     
   4135.1630000000005       ,   0.12470185105716007       ,   0.14293000000000000     
   4139.0419999999995       ,   0.12463885183231779       ,   0.14232000000000000     
   4142.9260000000004       ,   0.12461134822118666       ,   0.14194999999999999     
   4146.8119999999999       ,   0.12460792911141161       ,   0.14136000000000001     
   4150.7030000000004       ,   0.12462134221105139       ,   0.14208999999999999     
   4154.5980000000000       ,   0.12465133844270652       ,   0.14294000000000001     
   4158.4960000000001       ,   0.12470595397292457       ,   0.14388000000000001     
   4162.3969999999999       ,   0.12479751465719702       ,   0.14493000000000000     
   4166.3029999999999       ,   0.12493746765031077       ,   0.14535999999999999     
   4170.2120000000004       ,   0.12513407326207626       ,   0.14641999999999999     
   4174.1239999999998       ,   0.12539319771777485       ,   0.14734000000000000     
   4178.0410000000002       ,   0.12571110457097967       ,   0.14828000000000000     
   4181.9610000000002       ,   0.12606243180935792       ,   0.15176000000000001     
   4185.8840000000000       ,   0.12640106305091331       ,   0.15748999999999999     
   4189.8119999999999       ,   0.12666567339315088       ,   0.16542000000000001     
   4193.7430000000004       ,   0.12677596688365367       ,   0.17358999999999999     
   4197.6779999999999       ,   0.12667109098055346       ,   0.17732000000000001     
   4201.6160000000000       ,   0.12638090355053860       ,   0.17519000000000001     
   4205.5580000000000       ,   0.12601735942178977       ,   0.16816999999999999     
   4209.5039999999999       ,   0.12568579597982302       ,   0.16172000000000000     
   4213.4539999999997       ,   0.12543423661892919       ,   0.15845999999999999     
   4217.4069999999992       ,   0.12525824400605909       ,   0.15554999999999999     
   4221.3640000000005       ,   0.12512548225324338       ,   0.15306000000000000     
   4225.3249999999998       ,   0.12500493676221605       ,   0.15160000000000001     
   4229.2889999999998       ,   0.12489390310158874       ,   0.15095000000000000     
   4233.2569999999996       ,   0.12481457019147069       ,   0.15013000000000001     
   4237.2290000000003       ,   0.12478789443942016       ,   0.14904000000000001     
   4241.2049999999999       ,   0.12482078850073332       ,   0.14962000000000000     
   4245.1830000000000       ,   0.12490932405223447       ,   0.15003000000000000     
   4249.1669999999995       ,   0.12504486554000363       ,   0.15159000000000000     
   4253.1530000000002       ,   0.12521961893015546       ,   0.15301000000000001     
   4257.1430000000000       ,   0.12543417192940537       ,   0.15337000000000001     
   4261.1369999999997       ,   0.12569252330075487       ,   0.15426000000000001     
   4265.1360000000004       ,   0.12598773927734006       ,   0.15612999999999999     
   4269.1379999999999       ,   0.12629406061083628       ,   0.15844000000000000     
   4273.1430000000000       ,   0.12656771126194302       ,   0.16150000000000000     
   4277.1530000000002       ,   0.12674733228008639       ,   0.16567999999999999     
   4281.1660000000002       ,   0.12677439405919613       ,   0.16775999999999999     
   4285.1819999999998       ,   0.12666495695461008       ,   0.16661000000000001     
   4289.2029999999995       ,   0.12652452520356261       ,   0.16253000000000001     
   4293.2269999999999       ,   0.12645393014142295       ,   0.15831000000000001     
   4297.2560000000003       ,   0.12648395937697426       ,   0.15833000000000000     
   4301.2870000000003       ,   0.12657955458740486       ,   0.16109000000000001     
   4305.3229999999994       ,   0.12666761563105097       ,   0.16341000000000000     
   4309.3630000000003       ,   0.12666380737698515       ,   0.16603000000000001     
   4313.4050000000007       ,   0.12653712604448927       ,   0.16533999999999999     
   4317.4520000000002       ,   0.12635430338648954       ,   0.16216000000000000     
   4321.5029999999997       ,   0.12621284750133160       ,   0.15789000000000000     
   4325.5580000000000       ,   0.12615878885516521       ,   0.15504000000000001     
   4329.6170000000002       ,   0.12617115784598640       ,   0.15440999999999999     
   4333.6790000000001       ,   0.12618307569649070       ,   0.15440000000000001     
   4337.7449999999999       ,   0.12610249902527104       ,   0.15589000000000000     
   4341.8150000000005       ,   0.12586113035127827       ,   0.15587000000000001     
   4345.8880000000008       ,   0.12548275824232522       ,   0.15429999999999999     
   4349.9660000000003       ,   0.12507224367040290       ,   0.14948000000000000     
   4354.0469999999996       ,   0.12472228331556712       ,   0.14521000000000001     
   4358.1320000000005       ,   0.12447250769687704       ,   0.14285999999999999     
   4362.2209999999995       ,   0.12432058757517184       ,   0.14127000000000001     
   4366.3140000000003       ,   0.12424714440643053       ,   0.14127000000000001     
   4370.4110000000001       ,   0.12423334865909663       ,   0.14157000000000000     
   4374.5120000000006       ,   0.12426460743878433       ,   0.14202999999999999     
   4378.6160000000000       ,   0.12432848138903944       ,   0.14405000000000001     
   4382.7239999999993       ,   0.12441795578727675       ,   0.14258999999999999     
   4386.8359999999993       ,   0.12453346333193871       ,   0.14230999999999999     
   4390.9520000000002       ,   0.12467858776647539       ,   0.14413000000000001     
   4395.0720000000001       ,   0.12485969898764840       ,   0.14751000000000000     
   4399.1949999999997       ,   0.12508329439738156       ,   0.14929999999999999     
   4403.3230000000003       ,   0.12537245356430651       ,   0.14992000000000000     
   4407.4540000000006       ,   0.12577377363176584       ,   0.15010000000000001     
   4411.5889999999999       ,   0.12633408088612325       ,   0.14938000000000001     
   4415.7289999999994       ,   0.12704986132800264       ,   0.14927000000000001     
   4419.8719999999994       ,   0.12784839864047004       ,   0.15495000000000000     
   4424.0180000000000       ,   0.12860949787974088       ,   0.16427000000000000     
   4428.1689999999999       ,   0.12918350097972534       ,   0.17324999999999999     
   4432.3240000000005       ,   0.12940016406197918       ,   0.18099999999999999     
   4436.4830000000002       ,   0.12918533805090016       ,   0.18154999999999999     
   4440.6459999999997       ,   0.12870072794571055       ,   0.17599999999999999     
   4444.8109999999997       ,   0.12822357458644321       ,   0.16797999999999999     
   4448.9809999999998       ,   0.12793523230497508       ,   0.16335000000000000     
   4453.1559999999999       ,   0.12785504377678561       ,   0.16102000000000000     
   4457.3340000000007       ,   0.12788341309141485       ,   0.16052000000000000     
   4461.5159999999996       ,   0.12786088052397276       ,   0.16411999999999999     
   4465.7020000000002       ,   0.12761762684163838       ,   0.16506000000000001     
   4469.8930000000000       ,   0.12708982932033303       ,   0.16261999999999999     
   4474.0859999999993       ,   0.12640181457103719       ,   0.15962000000000001     
   4478.2830000000004       ,   0.12574402290843850       ,   0.15318000000000001     
   4482.4859999999999       ,   0.12523525275132691       ,   0.14820000000000000     
   4486.6910000000007       ,   0.12490224703470391       ,   0.14535000000000001     
   4490.9009999999998       ,   0.12471949745440981       ,   0.14318000000000000     
   4495.1140000000005       ,   0.12465306562098205       ,   0.14291999999999999     
   4499.3320000000003       ,   0.12468361292822100       ,   0.14318000000000000     
   4503.5529999999999       ,   0.12481501749997942       ,   0.14302999999999999     
   4507.7780000000002       ,   0.12506633490454586       ,   0.14279000000000000     
   4512.0079999999998       ,   0.12544696093182808       ,   0.14224000000000001     
   4516.2420000000002       ,   0.12593046056693621       ,   0.14523000000000000     
   4520.4790000000003       ,   0.12645737606684940       ,   0.14729999999999999     
   4524.7200000000003       ,   0.12694686558471699       ,   0.15246999999999999     
   4528.9659999999994       ,   0.12730538670709862       ,   0.15872000000000000     
   4533.2150000000001       ,   0.12744067592614924       ,   0.16214000000000001     
   4537.4679999999998       ,   0.12736488765426834       ,   0.16144000000000000     
   4541.7249999999995       ,   0.12725943552217026       ,   0.15734000000000001     
   4545.9849999999997       ,   0.12733216520981183       ,   0.15407999999999999     
   4550.2510000000002       ,   0.12766371073255470       ,   0.15393000000000001     
   4554.5210000000006       ,   0.12818564236705018       ,   0.15898000000000001     
   4558.7939999999999       ,   0.12873683829585456       ,   0.16627000000000000     
   4563.0709999999999       ,   0.12911254135961026       ,   0.17358000000000001     
   4567.3530000000001       ,   0.12909023225431701       ,   0.18068999999999999     
   4571.6379999999999       ,   0.12856867604639191       ,   0.18032000000000001     
   4575.9269999999997       ,   0.12771605697868871       ,   0.17316000000000001     
   4580.2209999999995       ,   0.12683074254203489       ,   0.16447999999999999     
   4584.5180000000000       ,   0.12612204326136775       ,   0.15651000000000001     
   4588.8199999999997       ,   0.12564918487670745       ,   0.14990000000000001     
   4593.1250000000000       ,   0.12536713173442765       ,   0.14646999999999999     
   4597.4349999999995       ,   0.12518822375135244       ,   0.14383000000000001     
   4601.7479999999996       ,   0.12502180356800152       ,   0.14263999999999999     
   4606.0650000000005       ,   0.12480512513857626       ,   0.14190000000000000     
   4610.3870000000006       ,   0.12454301157563641       ,   0.14061999999999999     
   4614.7129999999997       ,   0.12429163087837876       ,   0.13804000000000000     
   4619.0420000000004       ,   0.12410175664257168       ,   0.13575999999999999     
   4623.3760000000002       ,   0.12399405919895413       ,   0.13572999999999999     
   4627.7139999999999       ,   0.12396630637645042       ,   0.13675999999999999     
   4632.0560000000005       ,   0.12400771265625228       ,   0.13628999999999999     
   4636.4020000000000       ,   0.12410224768347577       ,   0.13611000000000001     
   4640.7520000000004       ,   0.12424436820910925       ,   0.13816000000000001     
   4645.1059999999998       ,   0.12443195251675356       ,   0.13914000000000001     
   4649.4639999999999       ,   0.12466306267104056       ,   0.13997000000000001     
   4653.8260000000000       ,   0.12494230201041798       ,   0.14190000000000000     
   4658.1939999999995       ,   0.12528080394205007       ,   0.14352999999999999     
   4662.5639999999994       ,   0.12566662781981225       ,   0.14544000000000001     
   4666.9380000000001       ,   0.12605003577254417       ,   0.14871000000000001     
   4671.3170000000000       ,   0.12635277846237020       ,   0.15271000000000001     
   4675.6999999999998       ,   0.12647818193269419       ,   0.15673999999999999     
   4680.0879999999997       ,   0.12636939599603939       ,   0.15890000000000001     
   4684.4780000000001       ,   0.12612177699415611       ,   0.15645999999999999     
   4688.8730000000005       ,   0.12593831872267994       ,   0.15311000000000000     
   4693.2729999999992       ,   0.12597013429834172       ,   0.15014000000000000     
   4697.6760000000004       ,   0.12624206068406749       ,   0.15082999999999999     
   4702.0839999999998       ,   0.12667179105015866       ,   0.15501000000000001     
   4706.4949999999999       ,   0.12711904419035011       ,   0.16420000000000001     
   4710.9110000000001       ,   0.12742026393064462       ,   0.17377000000000001     
   4715.3310000000001       ,   0.12740268380464231       ,   0.17957000000000001     
   4719.7550000000001       ,   0.12698740157334867       ,   0.17782999999999999     
   4724.1840000000002       ,   0.12630012351244407       ,   0.17110000000000000     
   4728.6160000000000       ,   0.12555783219035865       ,   0.16092999999999999     
   4733.0529999999999       ,   0.12491610741328338       ,   0.15178000000000000     
   4737.4929999999995       ,   0.12443398367094920       ,   0.14570000000000000     
   4741.9380000000001       ,   0.12409945772533461       ,   0.14230000000000001     
   4746.3870000000006       ,   0.12387237044719052       ,   0.13875999999999999     
   4750.8400000000001       ,   0.12371809907493883       ,   0.13632000000000000     
   4755.2979999999998       ,   0.12362064576426292       ,   0.13469999999999999     
   4759.7600000000002       ,   0.12357706459037524       ,   0.13405000000000000     
   4764.2249999999995       ,   0.12358945517810768       ,   0.13389000000000001     
   4768.6949999999997       ,   0.12366076021860838       ,   0.13370000000000001     
   4773.1700000000001       ,   0.12378857515462059       ,   0.13416000000000000     
   4777.6480000000001       ,   0.12396316220183203       ,   0.13471000000000000     
   4782.1309999999994       ,   0.12416319243729952       ,   0.13642000000000001     
   4786.6169999999993       ,   0.12435674766352528       ,   0.13805999999999999     
   4791.1089999999995       ,   0.12450415375683012       ,   0.14033000000000001     
   4795.6040000000003       ,   0.12456265385554748       ,   0.14283000000000001     
   4800.1030000000001       ,   0.12451583820112440       ,   0.14315000000000000     
   4804.6070000000000       ,   0.12439227363764586       ,   0.14213000000000001     
   4809.1140000000005       ,   0.12424026872297005       ,   0.14105999999999999     
   4813.6260000000002       ,   0.12410947846207553       ,   0.13869000000000001     
   4818.1419999999998       ,   0.12403236773981847       ,   0.13755000000000001     
   4822.6639999999998       ,   0.12400978042634807       ,   0.13630000000000000     
   4827.1879999999992       ,   0.12401886676016378       ,   0.13481000000000001     
   4831.7180000000008       ,   0.12402978415857270       ,   0.13506000000000001     
   4836.2510000000002       ,   0.12401690399891561       ,   0.13627000000000000     
   4840.7879999999996       ,   0.12398023016008007       ,   0.13469999999999999     
   4845.3299999999999       ,   0.12396052475546862       ,   0.13345000000000001     
   4849.8760000000002       ,   0.12401730750152055       ,   0.13450999999999999     
   4854.4270000000006       ,   0.12418759295292214       ,   0.13653000000000001     
   4858.9820000000000       ,   0.12447224375775970       ,   0.13722999999999999     
   4863.5400000000009       ,   0.12483729770007562       ,   0.14124999999999999     
   4868.1030000000001       ,   0.12522524563738180       ,   0.14351000000000000     
   4872.6710000000003       ,   0.12556553017599623       ,   0.14763999999999999     
   4877.2420000000002       ,   0.12577976937636054       ,   0.15250000000000000     
   4881.8180000000002       ,   0.12582554166216028       ,   0.15386000000000000     
   4886.3990000000003       ,   0.12578145338303989       ,   0.15268000000000001     
   4890.9840000000004       ,   0.12581498063018329       ,   0.14951000000000000     
   4895.5719999999992       ,   0.12608074013830678       ,   0.14879000000000001     
   4900.1659999999993       ,   0.12665717547384769       ,   0.14857999999999999     
   4904.7629999999999       ,   0.12750210735805070       ,   0.15012000000000000     
   4909.3649999999998       ,   0.12845552992371417       ,   0.15673999999999999     
   4913.9710000000005       ,   0.12928582957998336       ,   0.16725000000000001     
   4918.5819999999994       ,   0.12971225054593752       ,   0.17494999999999999     
   4923.1970000000001       ,   0.12945329664294303       ,   0.17743999999999999     
   4927.8159999999998       ,   0.12849120050131141       ,   0.17394999999999999     
   4932.4389999999994       ,   0.12719882662632889       ,   0.16472000000000001     
   4937.0670000000000       ,   0.12599795331045405       ,   0.15425000000000000     
   4941.6989999999996       ,   0.12509674742025906       ,   0.14702000000000001     
