Flight time (us) , Calculated , Experiment
   3990.3940000000002       ,   0.12506758685393982       ,   0.15003000000000000     
   3994.1390000000001       ,   0.12503787417073930       ,   0.15043999999999999     
   3997.8860000000000       ,   0.12500443063776653       ,   0.15013000000000001     
   4001.6369999999997       ,   0.12497189882368577       ,   0.14829999999999999     
   4005.3910000000005       ,   0.12494039929527936       ,   0.14918000000000001     
   4009.1500000000001       ,   0.12491009272943746       ,   0.15082999999999999     
   4012.9110000000001       ,   0.12488140644771566       ,   0.15228000000000000     
   4016.6760000000004       ,   0.12485456656586655       ,   0.15304000000000001     
   4020.4440000000004       ,   0.12483048775641825       ,   0.15329999999999999     
   4024.2170000000001       ,   0.12481044314011749       ,   0.15187999999999999     
   4027.9920000000002       ,   0.12479641836922450       ,   0.15038000000000001     
   4031.7719999999999       ,   0.12479116112191735       ,   0.15035999999999999     
   4035.5540000000001       ,   0.12479804947929922       ,   0.15084000000000000     
   4039.3410000000003       ,   0.12482047634128714       ,   0.15100000000000000     
   4043.1299999999997       ,   0.12486085872839733       ,   0.15126999999999999     
   4046.9239999999995       ,   0.12491991963977579       ,   0.15262999999999999     
   4050.7220000000002       ,   0.12499682580957890       ,   0.15146999999999999     
   4054.5220000000004       ,   0.12509053618351881       ,   0.15021000000000001     
   4058.3260000000000       ,   0.12520076312922945       ,   0.15026000000000000     
   4062.1330000000003       ,   0.12532579290541343       ,   0.15018000000000001     
   4065.9450000000002       ,   0.12546158435026272       ,   0.15010000000000001     
   4069.7599999999998       ,   0.12560756723873626       ,   0.15110000000000001     
   4073.5780000000004       ,   0.12576731593529278       ,   0.15306000000000000     
   4077.4000000000001       ,   0.12593662512423515       ,   0.15473000000000001     
   4081.2249999999999       ,   0.12609662149874537       ,   0.15948000000000001     
   4085.0549999999998       ,   0.12621377586087149       ,   0.16672999999999999     
   4088.8869999999997       ,   0.12624066433505873       ,   0.17272999999999999     
   4092.7239999999997       ,   0.12614302555417289       ,   0.17527000000000001     
   4096.5640000000003       ,   0.12594471308274208       ,   0.17287000000000000     
   4100.4069999999992       ,   0.12571283573968273       ,   0.16780000000000000     
   4104.2550000000001       ,   0.12550440423102227       ,   0.16155000000000000     
   4108.1060000000007       ,   0.12533898148859396       ,   0.15689000000000000     
   4111.9600000000000       ,   0.12520337788496000       ,   0.15487000000000001     
   4115.8180000000002       ,   0.12506828836678274       ,   0.15271000000000001     
   4119.6790000000001       ,   0.12491434632578904       ,   0.15043999999999999     
   4123.5450000000001       ,   0.12474924918727516       ,   0.14763000000000001     
   4127.4139999999998       ,   0.12459535092546842       ,   0.14605000000000001     
   4131.2870000000003       ,   0.12446967048752132       ,   0.14482999999999999     
   4135.1630000000005       ,   0.12437821288636557       ,   0.14293000000000000     
   4139.0419999999995       ,   0.12431942414137478       ,   0.14232000000000000     
   4142.9260000000004       ,   0.12428945273511337       ,   0.14194999999999999     
   4146.8119999999999       ,   0.12428322265412019       ,   0.14136000000000001     
   4150.7030000000004       ,   0.12429792313576635       ,   0.14208999999999999     
   4154.5980000000000       ,   0.12433239328161801       ,   0.14294000000000001     
   4158.4960000000001       ,   0.12438865528016456       ,   0.14388000000000001     
   4162.3969999999999       ,   0.12447208484244085       ,   0.14493000000000000     
   4166.3029999999999       ,   0.12458909243478901       ,   0.14535999999999999     
   4170.2120000000004       ,   0.12474480574953375       ,   0.14641999999999999     
   4174.1239999999998       ,   0.12494324967665263       ,   0.14734000000000000     
   4178.0410000000002       ,   0.12518162130754942       ,   0.14828000000000000     
   4181.9610000000002       ,   0.12544106726792464       ,   0.15176000000000001     
   4185.8840000000000       ,   0.12568733712023755       ,   0.15748999999999999     
   4189.8119999999999       ,   0.12587506329264272       ,   0.16542000000000001     
   4193.7430000000004       ,   0.12594439130467786       ,   0.17358999999999999     
   4197.6779999999999       ,   0.12585085592934595       ,   0.17732000000000001     
   4201.6160000000000       ,   0.12562051958583936       ,   0.17519000000000001     
   4205.5580000000000       ,   0.12534160942807160       ,   0.16816999999999999     
   4209.5039999999999       ,   0.12509355665313268       ,   0.16172000000000000     
   4213.4539999999997       ,   0.12490930207742788       ,   0.15845999999999999     
   4217.4069999999992       ,   0.12478167225940888       ,   0.15554999999999999     
   4221.3640000000005       ,   0.12468171220283385       ,   0.15306000000000000     
   4225.3249999999998       ,   0.12458093504342144       ,   0.15160000000000001     
   4229.2889999999998       ,   0.12447484701046144       ,   0.15095000000000000     
   4233.2569999999996       ,   0.12438136779386978       ,   0.15013000000000001     
   4237.2290000000003       ,   0.12431930471473238       ,   0.14904000000000001     
   4241.2049999999999       ,   0.12429717624569428       ,   0.14962000000000000     
   4245.1830000000000       ,   0.12431523612240397       ,   0.15003000000000000     
   4249.1669999999995       ,   0.12436991566298761       ,   0.15159000000000000     
   4253.1530000000002       ,   0.12445825476519144       ,   0.15301000000000001     
   4257.1430000000000       ,   0.12458359448027834       ,   0.15337000000000001     
   4261.1369999999997       ,   0.12475037602238519       ,   0.15426000000000001     
   4265.1360000000004       ,   0.12495128612438267       ,   0.15612999999999999     
   4269.1379999999999       ,   0.12516335042013799       ,   0.15844000000000000     
   4273.1430000000000       ,   0.12535278664377958       ,   0.16150000000000000     
   4277.1530000000002       ,   0.12547577179805983       ,   0.16567999999999999     
   4281.1660000000002       ,   0.12549041559957810       ,   0.16775999999999999     
   4285.1819999999998       ,   0.12540480653176372       ,   0.16661000000000001     
   4289.2029999999995       ,   0.12528837590077993       ,   0.16253000000000001     
   4293.2269999999999       ,   0.12521051295838892       ,   0.15831000000000001     
   4297.2560000000003       ,   0.12519702968919333       ,   0.15833000000000000     
   4301.2870000000003       ,   0.12523214185180248       ,   0.16109000000000001     
   4305.3229999999994       ,   0.12527592742723728       ,   0.16341000000000000     
   4309.3630000000003       ,   0.12528082700125662       ,   0.16603000000000001     
   4313.4050000000007       ,   0.12522977203831401       ,   0.16533999999999999     
   4317.4520000000002       ,   0.12516163343370745       ,   0.16216000000000000     
   4321.5029999999997       ,   0.12512990651887379       ,   0.15789000000000000     
   4325.5580000000000       ,   0.12515366659093280       ,   0.15504000000000001     
   4329.6170000000002       ,   0.12521084175672592       ,   0.15440999999999999     
   4333.6790000000001       ,   0.12525228343885686       ,   0.15440000000000001     
   4337.7449999999999       ,   0.12521299119137835       ,   0.15589000000000000     
   4341.8150000000005       ,   0.12504501012497202       ,   0.15587000000000001     
   4345.8880000000008       ,   0.12476761959757179       ,   0.15429999999999999     
   4349.9660000000003       ,   0.12445860518236553       ,   0.14948000000000000     
   4354.0469999999996       ,   0.12418718769400633       ,   0.14521000000000001     
   4358.1320000000005       ,   0.12398462413577234       ,   0.14285999999999999     
   4362.2209999999995       ,   0.12385281000783270       ,   0.14127000000000001     
   4366.3140000000003       ,   0.12378182627776477       ,   0.14127000000000001     
   4370.4110000000001       ,   0.12376191008435082       ,   0.14157000000000000     
   4374.5120000000006       ,   0.12378683149085028       ,   0.14202999999999999     
   4378.6160000000000       ,   0.12385173809505283       ,   0.14405000000000001     
   4382.7239999999993       ,   0.12395003664879158       ,   0.14258999999999999     
   4386.8359999999993       ,   0.12407212449984699       ,   0.14230999999999999     
   4390.9520000000002       ,   0.12420729216275724       ,   0.14413000000000001     
   4395.0720000000001       ,   0.12434710596294124       ,   0.14751000000000000     
   4399.1949999999997       ,   0.12448183501431893       ,   0.14929999999999999     
   4403.3230000000003       ,   0.12461377506317843       ,   0.14992000000000000     
   4407.4540000000006       ,   0.12477164798412421       ,   0.15010000000000001     
   4411.5889999999999       ,   0.12499732938410306       ,   0.14938000000000001     
   4415.7289999999994       ,   0.12530558945703560       ,   0.14927000000000001     
   4419.8719999999994       ,   0.12566786174304445       ,   0.15495000000000000     
   4424.0180000000000       ,   0.12602612198241381       ,   0.16427000000000000     
   4428.1689999999999       ,   0.12630625034888776       ,   0.17324999999999999     
   4432.3240000000005       ,   0.12642443204191026       ,   0.18099999999999999     
   4436.4830000000002       ,   0.12634950337891371       ,   0.18154999999999999     
   4440.6459999999997       ,   0.12617554559608149       ,   0.17599999999999999     
   4444.8109999999997       ,   0.12605039015766584       ,   0.16797999999999999     
   4448.9809999999998       ,   0.12605572762980277       ,   0.16335000000000000     
   4453.1559999999999       ,   0.12617604527975629       ,   0.16102000000000000     
   4457.3340000000007       ,   0.12633084741634990       ,   0.16052000000000000     
   4461.5159999999996       ,   0.12640655739395906       ,   0.16411999999999999     
   4465.7020000000002       ,   0.12628156566016996       ,   0.16506000000000001     
   4469.8930000000000       ,   0.12591277968299286       ,   0.16261999999999999     
   4474.0859999999993       ,   0.12540033157353533       ,   0.15962000000000001     
   4478.2830000000004       ,   0.12489518134092747       ,   0.15318000000000001     
   4482.4859999999999       ,   0.12449323261334921       ,   0.14820000000000000     
   4486.6910000000007       ,   0.12421953603870131       ,   0.14535000000000001     
   4490.9009999999998       ,   0.12405838537315018       ,   0.14318000000000000     
   4495.1140000000005       ,   0.12398583252103434       ,   0.14291999999999999     
   4499.3320000000003       ,   0.12398635994982485       ,   0.14318000000000000     
   4503.5529999999999       ,   0.12405883542672298       ,   0.14302999999999999     
   4507.7780000000002       ,   0.12421145145396741       ,   0.14279000000000000     
   4512.0079999999998       ,   0.12444656052108674       ,   0.14224000000000001     
   4516.2420000000002       ,   0.12474474026168329       ,   0.14523000000000000     
   4520.4790000000003       ,   0.12506771014987983       ,   0.14729999999999999     
   4524.7200000000003       ,   0.12536599400413784       ,   0.15246999999999999     
   4528.9659999999994       ,   0.12558310717416993       ,   0.15872000000000000     
   4533.2150000000001       ,   0.12566279704968783       ,   0.16214000000000001     
   4537.4679999999998       ,   0.12561140092357836       ,   0.16144000000000000     
   4541.7249999999995       ,   0.12553747628015324       ,   0.15734000000000001     
   4545.9849999999997       ,   0.12556574839655155       ,   0.15407999999999999     
   4550.2510000000002       ,   0.12574450383541216       ,   0.15393000000000001     
   4554.5210000000006       ,   0.12603298090946169       ,   0.15898000000000001     
   4558.7939999999999       ,   0.12633605133501333       ,   0.16627000000000000     
   4563.0709999999999       ,   0.12653335011300176       ,   0.17358000000000001     
   4567.3530000000001       ,   0.12649371322618408       ,   0.18068999999999999     
   4571.6379999999999       ,   0.12615963287824450       ,   0.18032000000000001     
   4575.9269999999997       ,   0.12563821683673199       ,   0.17316000000000001     
   4580.2209999999995       ,   0.12511274524402721       ,   0.16447999999999999     
   4584.5180000000000       ,   0.12470456344742245       ,   0.15651000000000001     
   4588.8199999999997       ,   0.12444048574812412       ,   0.14990000000000001     
   4593.1250000000000       ,   0.12428796936473828       ,   0.14646999999999999     
   4597.4349999999995       ,   0.12419384226467313       ,   0.14383000000000001     
   4601.7479999999996       ,   0.12410533638357503       ,   0.14263999999999999     
   4606.0650000000005       ,   0.12398587992549905       ,   0.14190000000000000     
   4610.3870000000006       ,   0.12383666353513929       ,   0.14061999999999999     
   4614.7129999999997       ,   0.12368731334129905       ,   0.13804000000000000     
   4619.0420000000004       ,   0.12356429576229745       ,   0.13575999999999999     
   4623.3760000000002       ,   0.12347775382101446       ,   0.13572999999999999     
   4627.7139999999999       ,   0.12342677305737298       ,   0.13675999999999999     
   4632.0560000000005       ,   0.12340911777866762       ,   0.13628999999999999     
   4636.4020000000000       ,   0.12342165198190096       ,   0.13611000000000001     
   4640.7520000000004       ,   0.12347091145344218       ,   0.13816000000000001     
   4645.1059999999998       ,   0.12356744734487034       ,   0.13914000000000001     
   4649.4639999999999       ,   0.12372344449944725       ,   0.13997000000000001     
   4653.8260000000000       ,   0.12394613773127083       ,   0.14190000000000000     
   4658.1939999999995       ,   0.12422924081733555       ,   0.14352999999999999     
   4662.5639999999994       ,   0.12454595852771264       ,   0.14544000000000001     
   4666.9380000000001       ,   0.12485341203749882       ,   0.14871000000000001     
   4671.3170000000000       ,   0.12509937652155670       ,   0.15271000000000001     
   4675.6999999999998       ,   0.12522342832177960       ,   0.15673999999999999     
   4680.0879999999997       ,   0.12519287799067083       ,   0.15890000000000001     
   4684.4780000000001       ,   0.12507701174665012       ,   0.15645999999999999     
   4688.8730000000005       ,   0.12501632159859924       ,   0.15311000000000000     
   4693.2729999999992       ,   0.12511324313920982       ,   0.15014000000000000     
   4697.6760000000004       ,   0.12537933768400492       ,   0.15082999999999999     
   4702.0839999999998       ,   0.12574787127165454       ,   0.15501000000000001     
   4706.4949999999999       ,   0.12610958268748995       ,   0.16420000000000001     
   4710.9110000000001       ,   0.12633629363637880       ,   0.17377000000000001     
   4715.3310000000001       ,   0.12628892670781955       ,   0.17957000000000001     
   4719.7550000000001       ,   0.12590873132430933       ,   0.17782999999999999     
   4724.1840000000002       ,   0.12531607489444885       ,   0.17110000000000000     
   4728.6160000000000       ,   0.12470695975242187       ,   0.16092999999999999     
   4733.0529999999999       ,   0.12420783172622731       ,   0.15178000000000000     
   4737.4929999999995       ,   0.12385128621182614       ,   0.14570000000000000     
   4741.9380000000001       ,   0.12361498620997663       ,   0.14230000000000001     
   4746.3870000000006       ,   0.12346254030410057       ,   0.13875999999999999     
   4750.8400000000001       ,   0.12336440559401604       ,   0.13632000000000000     
   4755.2979999999998       ,   0.12330318120851995       ,   0.13469999999999999     
   4759.7600000000002       ,   0.12327097872023103       ,   0.13405000000000000     
   4764.2249999999995       ,   0.12326531509956784       ,   0.13389000000000001     
   4768.6949999999997       ,   0.12328599282652782       ,   0.13370000000000001     
   4773.1700000000001       ,   0.12333025652048371       ,   0.13416000000000000     
   4777.6480000000001       ,   0.12339224317027551       ,   0.13471000000000000     
   4782.1309999999994       ,   0.12346099457574375       ,   0.13642000000000001     
   4786.6169999999993       ,   0.12352227709919626       ,   0.13805999999999999     
   4791.1089999999995       ,   0.12355959246103050       ,   0.14033000000000001     
   4795.6040000000003       ,   0.12355594827689707       ,   0.14283000000000001     
   4800.1030000000001       ,   0.12351016836684758       ,   0.14315000000000000     
   4804.6070000000000       ,   0.12344768578594971       ,   0.14213000000000001     
   4809.1140000000005       ,   0.12340031666652292       ,   0.14105999999999999     
   4813.6260000000002       ,   0.12338611848545179       ,   0.13869000000000001     
   4818.1419999999998       ,   0.12340602357236714       ,   0.13755000000000001     
   4822.6639999999998       ,   0.12344917700518768       ,   0.13630000000000000     
   4827.1879999999992       ,   0.12349998120875087       ,   0.13481000000000001     
   4831.7180000000008       ,   0.12354253933469016       ,   0.13506000000000001     
   4836.2510000000002       ,   0.12356285961046312       ,   0.13627000000000000     
   4840.7879999999996       ,   0.12356379343469878       ,   0.13469999999999999     
   4845.3299999999999       ,   0.12357654014910928       ,   0.13345000000000001     
   4849.8760000000002       ,   0.12364543156304322       ,   0.13450999999999999     
   4854.4270000000006       ,   0.12379795499104027       ,   0.13653000000000001     
   4858.9820000000000       ,   0.12403277766158781       ,   0.13722999999999999     
   4863.5400000000009       ,   0.12432011453807872       ,   0.14124999999999999     
   4868.1030000000001       ,   0.12461169481458086       ,   0.14351000000000000     
   4872.6710000000003       ,   0.12485090746095347       ,   0.14763999999999999     
   4877.2420000000002       ,   0.12497601715185012       ,   0.15250000000000000     
   4881.8180000000002       ,   0.12495996700626663       ,   0.15386000000000000     
   4886.3990000000003       ,   0.12488942248521064       ,   0.15268000000000001     
   4890.9840000000004       ,   0.12493237958047103       ,   0.14951000000000000     
   4895.5719999999992       ,   0.12522597024803564       ,   0.14879000000000001     
   4900.1659999999993       ,   0.12581432572163198       ,   0.14857999999999999     
   4904.7629999999999       ,   0.12663392918066044       ,   0.15012000000000000     
   4909.3649999999998       ,   0.12753247478562563       ,   0.15673999999999999     
   4913.9710000000005       ,   0.12830635281528191       ,   0.16725000000000001     
   4918.5819999999994       ,   0.12871142463359803       ,   0.17494999999999999     
   4923.1970000000001       ,   0.12850030300113219       ,   0.17743999999999999     
   4927.8159999999998       ,   0.12765729530184200       ,   0.17394999999999999     
   4932.4389999999994       ,   0.12651167102546754       ,   0.16472000000000001     
   4937.0670000000000       ,   0.12543675972945073       ,   0.15425000000000000     
   4941.6989999999996       ,   0.12461825879760405       ,   0.14702000000000001     
