Flight time (us) , Calculated , Experiment
   3990.3940000000002       ,   0.12687928056036624       ,   0.15715999999999999     
   3994.1390000000001       ,   0.12694874805860204       ,   0.15780000000000000     
   3997.8860000000000       ,   0.12701127207586060       ,   0.15898999999999999     
   4001.6369999999997       ,   0.12707378412784359       ,   0.15817999999999999     
   4005.3910000000005       ,   0.12713638432715330       ,   0.15698000000000001     
   4009.1500000000001       ,   0.12719926676518520       ,   0.15944000000000000     
   4012.9110000000001       ,   0.12726265302628617       ,   0.16078000000000001     
   4016.6760000000004       ,   0.12732682504505088       ,   0.16044000000000000     
   4020.4440000000004       ,   0.12739233610946382       ,   0.16055000000000000     
   4024.2170000000001       ,   0.12746008041393037       ,   0.16039999999999999     
   4027.9920000000002       ,   0.12753145741679492       ,   0.15811000000000000     
   4031.7719999999999       ,   0.12760903264355072       ,   0.15706999999999999     
   4035.5540000000001       ,   0.12769701399071329       ,   0.15817000000000001     
   4039.3410000000003       ,   0.12780228664557955       ,   0.16006999999999999     
   4043.1299999999997       ,   0.12793420027969049       ,   0.16125000000000000     
   4046.9239999999995       ,   0.12810285382219588       ,   0.16167000000000001     
   4050.7220000000002       ,   0.12831393361091339       ,   0.16095999999999999     
   4054.5220000000004       ,   0.12856444245521925       ,   0.15914000000000000     
   4058.3260000000000       ,   0.12884528821605060       ,   0.15862999999999999     
   4062.1330000000003       ,   0.12914547114736641       ,   0.15959999999999999     
   4065.9450000000002       ,   0.12944196576526290       ,   0.16008000000000000     
   4069.7599999999998       ,   0.12972026454001287       ,   0.15953000000000001     
   4073.5780000000004       ,   0.13004213267438655       ,   0.15998000000000001     
   4077.4000000000001       ,   0.13048212566591705       ,   0.16092999999999999     
   4081.2249999999999       ,   0.13103256353873644       ,   0.16547999999999999     
   4085.0549999999998       ,   0.13161236887434147       ,   0.17321000000000000     
   4088.8869999999997       ,   0.13207398288316621       ,   0.17987000000000000     
   4092.7239999999997       ,   0.13217501390398928       ,   0.18479999999999999     
   4096.5640000000003       ,   0.13183633681936854       ,   0.18459000000000000     
   4100.4069999999992       ,   0.13132770438560512       ,   0.17963000000000001     
   4104.2550000000001       ,   0.13092252150963135       ,   0.17313000000000001     
   4108.1060000000007       ,   0.13070166386197879       ,   0.16816000000000000     
   4111.9600000000000       ,   0.13061268858184202       ,   0.16464000000000001     
   4115.8180000000002       ,   0.13054238498333465       ,   0.16181999999999999     
   4119.6790000000001       ,   0.13036640109405467       ,   0.15986000000000000     
   4123.5450000000001       ,   0.13008031255475516       ,   0.15670999999999999     
   4127.4139999999998       ,   0.12978808133188868       ,   0.15386000000000000     
   4131.2870000000003       ,   0.12956426804211008       ,   0.15248999999999999     
   4135.1630000000005       ,   0.12942255879161263       ,   0.15110000000000001     
   4139.0419999999995       ,   0.12934810514971934       ,   0.14949000000000001     
   4142.9260000000004       ,   0.12932403936545284       ,   0.14932000000000001     
   4146.8119999999999       ,   0.12934025510268338       ,   0.14999000000000001     
   4150.7030000000004       ,   0.12938858465231565       ,   0.15024000000000001     
   4154.5980000000000       ,   0.12946498909684298       ,   0.14957000000000001     
   4158.4960000000001       ,   0.12956716381610067       ,   0.15013000000000001     
   4162.3969999999999       ,   0.12969595014306443       ,   0.15135000000000001     
   4166.3029999999999       ,   0.12985626832294206       ,   0.15209000000000000     
   4170.2120000000004       ,   0.13005312875957228       ,   0.15261000000000000     
   4174.1239999999998       ,   0.13030729991232093       ,   0.15386000000000000     
   4178.0410000000002       ,   0.13066930210258745       ,   0.15531000000000000     
   4181.9610000000002       ,   0.13116796374621559       ,   0.15708000000000000     
   4185.8840000000000       ,   0.13176672424006000       ,   0.16327000000000000     
   4189.8119999999999       ,   0.13237618743413704       ,   0.17171000000000000     
   4193.7430000000004       ,   0.13285841378430302       ,   0.18115999999999999     
   4197.6779999999999       ,   0.13298031229485885       ,   0.18698000000000001     
   4201.6160000000000       ,   0.13263268826598187       ,   0.18656000000000000     
   4205.5580000000000       ,   0.13206148404458756       ,   0.18210000000000001     
   4209.5039999999999       ,   0.13156192187632018       ,   0.17433999999999999     
   4213.4539999999997       ,   0.13124566002939475       ,   0.16866999999999999     
   4217.4069999999992       ,   0.13108858489457328       ,   0.16542000000000001     
   4221.3640000000005       ,   0.13102076560648407       ,   0.16250999999999999     
   4225.3249999999998       ,   0.13096122649637018       ,   0.16159000000000001     
   4229.2889999999998       ,   0.13087180120412606       ,   0.16000000000000000     
   4233.2569999999996       ,   0.13080065996161100       ,   0.15679000000000001     
   4237.2290000000003       ,   0.13080572264249496       ,   0.15531000000000000     
   4241.2049999999999       ,   0.13089803315280477       ,   0.15507000000000001     
   4245.1830000000000       ,   0.13105466403839605       ,   0.15719000000000000     
   4249.1669999999995       ,   0.13124152317379925       ,   0.16050000000000000     
   4253.1530000000002       ,   0.13141082283043889       ,   0.16223000000000001     
   4257.1430000000000       ,   0.13155280683607748       ,   0.16349000000000000     
   4261.1369999999997       ,   0.13175811529331347       ,   0.16384000000000001     
   4265.1360000000004       ,   0.13212148958200712       ,   0.16469000000000000     
   4269.1379999999999       ,   0.13264723711871346       ,   0.16633000000000001     
   4273.1430000000000       ,   0.13325517907600420       ,   0.16936999999999999     
   4277.1530000000002       ,   0.13381716109471539       ,   0.17373000000000000     
   4281.1660000000002       ,   0.13412262867663277       ,   0.17670000000000000     
   4285.1819999999998       ,   0.13400613555884608       ,   0.17746999999999999     
   4289.2029999999995       ,   0.13367747607251335       ,   0.17527000000000001     
   4293.2269999999999       ,   0.13349965622025978       ,   0.17047000000000001     
   4297.2560000000003       ,   0.13362659550432937       ,   0.16874000000000000     
   4301.2870000000003       ,   0.13399314288279235       ,   0.17021000000000000     
   4305.3229999999994       ,   0.13443504047269741       ,   0.17355999999999999     
   4309.3630000000003       ,   0.13471481920740971       ,   0.17702000000000001     
   4313.4050000000007       ,   0.13456935481193863       ,   0.17574000000000001     
   4317.4520000000002       ,   0.13408040310462505       ,   0.17260000000000000     
   4321.5029999999997       ,   0.13363088173612697       ,   0.16966000000000001     
   4325.5580000000000       ,   0.13346577086393849       ,   0.16669000000000000     
   4329.6170000000002       ,   0.13358170936718095       ,   0.16428000000000001     
   4333.6790000000001       ,   0.13384022074641228       ,   0.16389999999999999     
   4337.7449999999999       ,   0.13404473501192074       ,   0.16520000000000001     
   4341.8150000000005       ,   0.13393028077258626       ,   0.16575999999999999     
   4345.8880000000008       ,   0.13338738854192550       ,   0.16309999999999999     
   4349.9660000000003       ,   0.13266118353516354       ,   0.15856999999999999     
   4354.0469999999996       ,   0.13202198975552951       ,   0.15554999999999999     
   4358.1320000000005       ,   0.13156482822341969       ,   0.15187999999999999     
   4362.2209999999995       ,   0.13126934555270006       ,   0.14846999999999999     
   4366.3140000000003       ,   0.13108757862719053       ,   0.14698000000000000     
   4370.4110000000001       ,   0.13098396774749646       ,   0.14674999999999999     
   4374.5120000000006       ,   0.13094044790180315       ,   0.14745000000000000     
   4378.6160000000000       ,   0.13094947476771310       ,   0.14907000000000001     
   4382.7239999999993       ,   0.13100831717652020       ,   0.14882999999999999     
   4386.8359999999993       ,   0.13111550313520118       ,   0.14856000000000000     
   4390.9520000000002       ,   0.13126674979813099       ,   0.15043999999999999     
   4395.0720000000001       ,   0.13145691712461077       ,   0.15314000000000000     
   4399.1949999999997       ,   0.13168764711436232       ,   0.15559000000000001     
   4403.3230000000003       ,   0.13196413819699088       ,   0.15756000000000001     
   4407.4540000000006       ,   0.13234642629411825       ,   0.15786000000000000     
   4411.5889999999999       ,   0.13297481369934577       ,   0.15841000000000000     
   4415.7289999999994       ,   0.13397386489820143       ,   0.15828999999999999     
   4419.8719999999994       ,   0.13533719456342214       ,   0.16172000000000000     
   4424.0180000000000       ,   0.13689573372742098       ,   0.17075000000000001     
   4428.1689999999999       ,   0.13837104592768348       ,   0.18092000000000000     
   4432.3240000000005       ,   0.13933868839486077       ,   0.18948999999999999     
   4436.4830000000002       ,   0.13922082104818650       ,   0.19411999999999999     
   4440.6459999999997       ,   0.13806657022794500       ,   0.19173000000000001     
   4444.8109999999997       ,   0.13672380156983160       ,   0.18434000000000000     
   4448.9809999999998       ,   0.13586652303768945       ,   0.17657000000000000     
   4453.1559999999999       ,   0.13563478603423307       ,   0.17204000000000000     
   4457.3340000000007       ,   0.13583538319428093       ,   0.17088000000000000     
   4461.5159999999996       ,   0.13617210327276988       ,   0.17335000000000000     
   4465.7020000000002       ,   0.13628087210797549       ,   0.17479000000000000     
   4469.8930000000000       ,   0.13578862196606839       ,   0.17413000000000001     
   4474.0859999999993       ,   0.13478357911403022       ,   0.17025999999999999     
   4478.2830000000004       ,   0.13372818601896577       ,   0.16333000000000000     
   4482.4859999999999       ,   0.13292377161848154       ,   0.15834000000000001     
   4486.6910000000007       ,   0.13241485113049450       ,   0.15501000000000001     
   4490.9009999999998       ,   0.13212985432555122       ,   0.15132999999999999     
   4495.1140000000005       ,   0.13199090943690722       ,   0.14984000000000000     
   4499.3320000000003       ,   0.13194496658937774       ,   0.14984000000000000     
   4503.5529999999999       ,   0.13197253683682719       ,   0.15024000000000001     
   4507.7780000000002       ,   0.13211895281831706       ,   0.15003000000000000     
   4512.0079999999998       ,   0.13247109194885515       ,   0.15060000000000001     
   4516.2420000000002       ,   0.13308003507155525       ,   0.15261000000000000     
   4520.4790000000003       ,   0.13391489782199306       ,   0.15456000000000000     
   4524.7200000000003       ,   0.13485378931451572       ,   0.16103000000000001     
   4528.9659999999994       ,   0.13571764977251660       ,   0.16682000000000000     
   4533.2150000000001       ,   0.13623323804567616       ,   0.17138000000000000     
   4537.4679999999998       ,   0.13611651680568512       ,   0.17293000000000000     
   4541.7249999999995       ,   0.13559042223759213       ,   0.16982000000000000     
   4545.9849999999997       ,   0.13526503210014604       ,   0.16592000000000001     
   4550.2510000000002       ,   0.13553518477271256       ,   0.16239000000000001     
   4554.5210000000006       ,   0.13641862624371978       ,   0.16502000000000000     
   4558.7939999999999       ,   0.13766257431601095       ,   0.17405000000000001     
   4563.0709999999999       ,   0.13888973899376889       ,   0.18187999999999999     
   4567.3530000000001       ,   0.13958925354867402       ,   0.18972000000000000     
   4571.6379999999999       ,   0.13913651113201694       ,   0.19189999999999999     
   4575.9269999999997       ,   0.13760269995542862       ,   0.18909999999999999     
   4580.2209999999995       ,   0.13584012688908206       ,   0.18002000000000001     
   4584.5180000000000       ,   0.13449282187712655       ,   0.17088000000000000     
   4588.8199999999997       ,   0.13370159730777412       ,   0.16208000000000000     
   4593.1250000000000       ,   0.13333483817627328       ,   0.15558000000000000     
   4597.4349999999995       ,   0.13319940102261713       ,   0.15168999999999999     
   4601.7479999999996       ,   0.13311532395472292       ,   0.14982000000000001     
   4606.0650000000005       ,   0.13289814834987804       ,   0.15018000000000001     
   4610.3870000000006       ,   0.13247165073645037       ,   0.14942000000000000     
   4614.7129999999997       ,   0.13196997338385233       ,   0.14688999999999999     
   4619.0420000000004       ,   0.13154397464264472       ,   0.14466000000000001     
   4623.3760000000002       ,   0.13124138377005984       ,   0.14269999999999999     
   4627.7139999999999       ,   0.13104467364319219       ,   0.14227999999999999     
   4632.0560000000005       ,   0.13092453368625517       ,   0.14273000000000000     
   4636.4020000000000       ,   0.13086321391063549       ,   0.14465000000000000     
   4640.7520000000004       ,   0.13085132106819530       ,   0.14499999999999999     
   4645.1059999999998       ,   0.13089725565621371       ,   0.14624000000000001     
   4649.4639999999999       ,   0.13102155029427184       ,   0.14770000000000000     
   4653.8260000000000       ,   0.13125788527777194       ,   0.14802999999999999     
   4658.1939999999995       ,   0.13164518691175928       ,   0.14985999999999999     
   4662.5639999999994       ,   0.13219293296284607       ,   0.15150000000000000     
   4666.9380000000001       ,   0.13284564213674541       ,   0.15626000000000001     
   4671.3170000000000       ,   0.13348801342065988       ,   0.16139999999999999     
   4675.6999999999998       ,   0.13395250078840756       ,   0.16649000000000000     
   4680.0879999999997       ,   0.13399575106281164       ,   0.16969999999999999     
   4684.4780000000001       ,   0.13356625957063742       ,   0.16780000000000000     
   4688.8730000000005       ,   0.13301916182490597       ,   0.16447999999999999     
   4693.2729999999992       ,   0.13273174903225934       ,   0.16033000000000000     
   4697.6760000000004       ,   0.13285336304143291       ,   0.15892000000000001     
   4702.0839999999998       ,   0.13333789611226324       ,   0.16258000000000000     
   4706.4949999999999       ,   0.13401923890014678       ,   0.16921000000000000     
   4710.9110000000001       ,   0.13467603552228813       ,   0.17877000000000001     
   4715.3310000000001       ,   0.13501574573363573       ,   0.18878000000000000     
   4719.7550000000001       ,   0.13469472257232665       ,   0.19155000000000000     
   4724.1840000000002       ,   0.13376948391726542       ,   0.18692000000000000     
   4728.6160000000000       ,   0.13270984802237970       ,   0.17746000000000001     
   4733.0529999999999       ,   0.13185109770559206       ,   0.16661999999999999     
   4737.4929999999995       ,   0.13126075982562357       ,   0.15881999999999999     
   4741.9380000000001       ,   0.13087732188281534       ,   0.15170000000000000     
   4746.3870000000006       ,   0.13062596915317509       ,   0.14757000000000001     
   4750.8400000000001       ,   0.13045610485827364       ,   0.14455000000000001     
   4755.2979999999998       ,   0.13034204986618539       ,   0.14232000000000000     
   4759.7600000000002       ,   0.13027427266489242       ,   0.14202999999999999     
   4764.2249999999995       ,   0.13025353095546124       ,   0.14080999999999999     
   4768.6949999999997       ,   0.13028998019372348       ,   0.14032000000000000     
   4773.1700000000001       ,   0.13039841745204089       ,   0.14049000000000000     
   4777.6480000000001       ,   0.13058919329554347       ,   0.14301000000000000     
   4782.1309999999994       ,   0.13084993029084080       ,   0.14335000000000001     
   4786.6169999999993       ,   0.13113711784264384       ,   0.14465000000000000     
   4791.1089999999995       ,   0.13138395350517562       ,   0.14779000000000000     
   4795.6040000000003       ,   0.13149082766482614       ,   0.15303000000000000     
   4800.1030000000001       ,   0.13135680850772266       ,   0.15454999999999999     
   4804.6070000000000       ,   0.13104396476724364       ,   0.15448999999999999     
   4809.1140000000005       ,   0.13072738163173736       ,   0.15296000000000001     
   4813.6260000000002       ,   0.13051746258015248       ,   0.14882999999999999     
   4818.1419999999998       ,   0.13043734778532909       ,   0.14762000000000000     
   4822.6639999999998       ,   0.13046198900420569       ,   0.14507999999999999     
   4827.1879999999992       ,   0.13054656360603012       ,   0.14360000000000001     
   4831.7180000000008       ,   0.13064047619067259       ,   0.14337000000000000     
   4836.2510000000002       ,   0.13068500680438622       ,   0.14287000000000000     
   4840.7879999999996       ,   0.13062007882069837       ,   0.14274999999999999     
   4845.3299999999999       ,   0.13046984459024433       ,   0.14112000000000000     
   4849.8760000000002       ,   0.13034627582229538       ,   0.14140000000000000     
   4854.4270000000006       ,   0.13033843872149475       ,   0.14238000000000001     
   4858.9820000000000       ,   0.13048124891595128       ,   0.14341000000000001     
   4863.5400000000009       ,   0.13076474956611592       ,   0.14630000000000001     
   4868.1030000000001       ,   0.13113851435830037       ,   0.15106000000000000     
   4872.6710000000003       ,   0.13151943177500050       ,   0.15568000000000001     
   4877.2420000000002       ,   0.13179538125471132       ,   0.15989999999999999     
   4881.8180000000002       ,   0.13181606793559619       ,   0.16175000000000000     
   4886.3990000000003       ,   0.13156573808903910       ,   0.16489000000000001     
   4890.9840000000004       ,   0.13128582214621215       ,   0.16200000000000001     
   4895.5719999999992       ,   0.13123930541594303       ,   0.15920999999999999     
   4900.1659999999993       ,   0.13157636531144226       ,   0.15903999999999999     
   4904.7629999999999       ,   0.13233507027765570       ,   0.15801999999999999     
   4909.3649999999998       ,   0.13342686568555581       ,   0.16305000000000000     
   4913.9710000000005       ,   0.13462964019767582       ,   0.17344999999999999     
   4918.5819999999994       ,   0.13562789832741048       ,   0.18345000000000000     
   4923.1970000000001       ,   0.13596363871480438       ,   0.18804000000000001     
   4927.8159999999998       ,   0.13523718031172680       ,   0.18637000000000001     
   4932.4389999999994       ,   0.13378401782202659       ,   0.17671000000000001     
   4937.0670000000000       ,   0.13232513389303319       ,   0.16900000000000001     
   4941.6989999999996       ,   0.13123726986469395       ,   0.15704000000000001     
