Flight time (us) , Calculated , Experiment
   3990.3940000000002       ,   0.12687535766995847       ,   0.15715999999999999     
   3994.1390000000001       ,   0.12694451178366539       ,   0.15780000000000000     
   3997.8860000000000       ,   0.12700692932424940       ,   0.15898999999999999     
   4001.6369999999997       ,   0.12706933764127953       ,   0.15817999999999999     
   4005.3910000000005       ,   0.12713184153435705       ,   0.15698000000000001     
   4009.1500000000001       ,   0.12719464327945210       ,   0.15944000000000000     
   4012.9110000000001       ,   0.12725802036418857       ,   0.16078000000000001     
   4016.6760000000004       ,   0.12732219762714250       ,   0.16044000000000000     
   4020.4440000000004       ,   0.12738781607215774       ,   0.16055000000000000     
   4024.2170000000001       ,   0.12745585545211430       ,   0.16039999999999999     
   4027.9920000000002       ,   0.12752787299398238       ,   0.15811000000000000     
   4031.7719999999999       ,   0.12760672477185889       ,   0.15706999999999999     
   4035.5540000000001       ,   0.12769712964694382       ,   0.15817000000000001     
   4039.3410000000003       ,   0.12780679924514129       ,   0.16006999999999999     
   4043.1299999999997       ,   0.12794618355592807       ,   0.16125000000000000     
   4046.9239999999995       ,   0.12812638208176802       ,   0.16167000000000001     
   4050.7220000000002       ,   0.12835308804905510       ,   0.16095999999999999     
   4054.5220000000004       ,   0.12862138104672241       ,   0.15914000000000000     
   4058.3260000000000       ,   0.12891816552744267       ,   0.15862999999999999     
   4062.1330000000003       ,   0.12922628876988529       ,   0.15959999999999999     
   4065.9450000000002       ,   0.12951227345518374       ,   0.16008000000000000     
   4069.7599999999998       ,   0.12975071206274094       ,   0.15953000000000001     
   4073.5780000000004       ,   0.13000564264096076       ,   0.15998000000000001     
   4077.4000000000001       ,   0.13036385805218981       ,   0.16092999999999999     
   4081.2249999999999       ,   0.13082952042195006       ,   0.16547999999999999     
   4085.0549999999998       ,   0.13133106631398445       ,   0.17321000000000000     
   4088.8869999999997       ,   0.13173320473325581       ,   0.17987000000000000     
   4092.7239999999997       ,   0.13181469795157194       ,   0.18479999999999999     
   4096.5640000000003       ,   0.13150225000582630       ,   0.18459000000000000     
   4100.4069999999992       ,   0.13103799035997230       ,   0.17963000000000001     
   4104.2550000000001       ,   0.13066775360693117       ,   0.17313000000000001     
   4108.1060000000007       ,   0.13046415839341918       ,   0.16816000000000000     
   4111.9600000000000       ,   0.13038038098621677       ,   0.16464000000000001     
   4115.8180000000002       ,   0.13031601238807899       ,   0.16181999999999999     
   4119.6790000000001       ,   0.13016129439464225       ,   0.15986000000000000     
   4123.5450000000001       ,   0.12991166981857674       ,   0.15670999999999999     
   4127.4139999999998       ,   0.12965753504037883       ,   0.15386000000000000     
   4131.2870000000003       ,   0.12946375573191463       ,   0.15248999999999999     
   4135.1630000000005       ,   0.12934228415417695       ,   0.15110000000000001     
   4139.0419999999995       ,   0.12928055734319169       ,   0.14949000000000001     
   4142.9260000000004       ,   0.12926458967407831       ,   0.14932000000000001     
   4146.8119999999999       ,   0.12928671113010276       ,   0.14999000000000001     
   4150.7030000000004       ,   0.12934145154964805       ,   0.15024000000000001     
   4154.5980000000000       ,   0.12942639353602997       ,   0.14957000000000001     
   4158.4960000000001       ,   0.12953878745013869       ,   0.15013000000000001     
   4162.3969999999999       ,   0.12967857472437325       ,   0.15135000000000001     
   4166.3029999999999       ,   0.12985079208337527       ,   0.15209000000000000     
   4170.2120000000004       ,   0.13006192154467344       ,   0.15261000000000000     
   4174.1239999999998       ,   0.13033523227536595       ,   0.15386000000000000     
   4178.0410000000002       ,   0.13072376427015978       ,   0.15531000000000000     
   4181.9610000000002       ,   0.13125674319126041       ,   0.15708000000000000     
   4185.8840000000000       ,   0.13189441927196308       ,   0.16327000000000000     
   4189.8119999999999       ,   0.13254145027263556       ,   0.17171000000000000     
   4193.7430000000004       ,   0.13305076541929903       ,   0.18115999999999999     
   4197.6779999999999       ,   0.13317336139188463       ,   0.18698000000000001     
   4201.6160000000000       ,   0.13279209740431935       ,   0.18656000000000000     
   4205.5580000000000       ,   0.13216974401633474       ,   0.18210000000000001     
   4209.5039999999999       ,   0.13162150094002742       ,   0.17433999999999999     
   4213.4539999999997       ,   0.13126611364312840       ,   0.16866999999999999     
   4217.4069999999992       ,   0.13107809849891303       ,   0.16542000000000001     
   4221.3640000000005       ,   0.13098411145981029       ,   0.16250999999999999     
   4225.3249999999998       ,   0.13090030574584302       ,   0.16159000000000001     
   4229.2889999999998       ,   0.13078474316348246       ,   0.16000000000000000     
   4233.2569999999996       ,   0.13067970990084268       ,   0.15679000000000001     
   4237.2290000000003       ,   0.13063945722708914       ,   0.15531000000000000     
   4241.2049999999999       ,   0.13067720406604441       ,   0.15507000000000001     
   4245.1830000000000       ,   0.13077741488504915       ,   0.15719000000000000     
   4249.1669999999995       ,   0.13091763156192487       ,   0.16050000000000000     
   4253.1530000000002       ,   0.13106983344672216       ,   0.16223000000000001     
   4257.1430000000000       ,   0.13123661992650748       ,   0.16349000000000000     
   4261.1369999999997       ,   0.13149129673111656       ,   0.16384000000000001     
   4265.1360000000004       ,   0.13190263236462607       ,   0.16469000000000000     
   4269.1379999999999       ,   0.13246054805180760       ,   0.16633000000000001     
   4273.1430000000000       ,   0.13308174901638786       ,   0.16936999999999999     
   4277.1530000000002       ,   0.13363907658207483       ,   0.17373000000000000     
   4281.1660000000002       ,   0.13392230958118598       ,   0.17670000000000000     
   4285.1819999999998       ,   0.13376213255547295       ,   0.17746999999999999     
   4289.2029999999995       ,   0.13335766685578004       ,   0.17527000000000001     
   4293.2269999999999       ,   0.13306254887499813       ,   0.17047000000000001     
   4297.2560000000003       ,   0.13303470345633936       ,   0.16874000000000000     
   4301.2870000000003       ,   0.13322949416132979       ,   0.17021000000000000     
   4305.3229999999994       ,   0.13351438782960406       ,   0.17355999999999999     
   4309.3630000000003       ,   0.13370359197058326       ,   0.17702000000000001     
   4313.4050000000007       ,   0.13359747439750821       ,   0.17574000000000001     
   4317.4520000000002       ,   0.13325924287143187       ,   0.17260000000000000     
   4321.5029999999997       ,   0.13297859377863885       ,   0.16966000000000001     
   4325.5580000000000       ,   0.13293688998251044       ,   0.16669000000000000     
   4329.6170000000002       ,   0.13312092404994286       ,   0.16428000000000001     
   4333.6790000000001       ,   0.13340987203811491       ,   0.16389999999999999     
   4337.7449999999999       ,   0.13363197281807901       ,   0.16520000000000001     
   4341.8150000000005       ,   0.13354991260181973       ,   0.16575999999999999     
   4345.8880000000008       ,   0.13306707888934297       ,   0.16309999999999999     
   4349.9660000000003       ,   0.13241102436263333       ,   0.15856999999999999     
   4354.0469999999996       ,   0.13183163674362317       ,   0.15554999999999999     
   4358.1320000000005       ,   0.13141711015655452       ,   0.15187999999999999     
   4362.2209999999995       ,   0.13114974094944301       ,   0.14846999999999999     
   4366.3140000000003       ,   0.13098704111437415       ,   0.14698000000000000     
   4370.4110000000001       ,   0.13089836062780488       ,   0.14674999999999999     
   4374.5120000000006       ,   0.13086969595725007       ,   0.14745000000000000     
   4378.6160000000000       ,   0.13089757804240912       ,   0.14907000000000001     
   4382.7239999999993       ,   0.13098251944365411       ,   0.14882999999999999     
   4386.8359999999993       ,   0.13112227361109319       ,   0.14856000000000000     
   4390.9520000000002       ,   0.13130671536518090       ,   0.15043999999999999     
   4395.0720000000001       ,   0.13152105629055605       ,   0.15314000000000000     
   4399.1949999999997       ,   0.13175222486508534       ,   0.15559000000000001     
   4403.3230000000003       ,   0.13198160309851303       ,   0.15756000000000001     
   4407.4540000000006       ,   0.13224733961423515       ,   0.15786000000000000     
   4411.5889999999999       ,   0.13268759996341975       ,   0.15841000000000000     
   4415.7289999999994       ,   0.13343239985266259       ,   0.15828999999999999     
   4419.8719999999994       ,   0.13448809905114198       ,   0.16172000000000000     
   4424.0180000000000       ,   0.13571765976796718       ,   0.17075000000000001     
   4428.1689999999999       ,   0.13689379721336437       ,   0.18092000000000000     
   4432.3240000000005       ,   0.13767429090339200       ,   0.18948999999999999     
   4436.4830000000002       ,   0.13759729868733722       ,   0.19411999999999999     
   4440.6459999999997       ,   0.13671040825131603       ,   0.19173000000000001     
   4444.8109999999997       ,   0.13570719169351469       ,   0.18434000000000000     
   4448.9809999999998       ,   0.13513603690312459       ,   0.17657000000000000     
   4453.1559999999999       ,   0.13510175996614845       ,   0.17204000000000000     
   4457.3340000000007       ,   0.13542671662814604       ,   0.17088000000000000     
   4461.5159999999996       ,   0.13584114800039204       ,   0.17335000000000000     
   4465.7020000000002       ,   0.13600305491954265       ,   0.17479000000000000     
   4469.8930000000000       ,   0.13555508851234588       ,   0.17413000000000001     
   4474.0859999999993       ,   0.13459006037288732       ,   0.17025999999999999     
   4478.2830000000004       ,   0.13356704265663139       ,   0.16333000000000000     
   4482.4859999999999       ,   0.13278497412095616       ,   0.15834000000000001     
   4486.6910000000007       ,   0.13228893120342550       ,   0.15501000000000001     
   4490.9009999999998       ,   0.13200922517238614       ,   0.15132999999999999     
   4495.1140000000005       ,   0.13186952227978721       ,   0.14984000000000000     
   4499.3320000000003       ,   0.13181710660215826       ,   0.14984000000000000     
   4503.5529999999999       ,   0.13183100578928186       ,   0.15024000000000001     
   4507.7780000000002       ,   0.13195227716871494       ,   0.15003000000000000     
   4512.0079999999998       ,   0.13226165941344792       ,   0.15060000000000001     
   4516.2420000000002       ,   0.13280573164059895       ,   0.15261000000000000     
   4520.4790000000003       ,   0.13355491287084473       ,   0.15456000000000000     
   4524.7200000000003       ,   0.13439661037983416       ,   0.16103000000000001     
   4528.9659999999994       ,   0.13516606352699403       ,   0.16682000000000000     
   4533.2150000000001       ,   0.13561196498970413       ,   0.17138000000000000     
   4537.4679999999998       ,   0.13547061625577267       ,   0.17293000000000000     
   4541.7249999999995       ,   0.13493433060662252       ,   0.16982000000000000     
   4545.9849999999997       ,   0.13454371834715875       ,   0.16592000000000001     
   4550.2510000000002       ,   0.13464687380922200       ,   0.16239000000000001     
   4554.5210000000006       ,   0.13526299872247000       ,   0.16502000000000000     
   4558.7939999999999       ,   0.13618538872379918       ,   0.17405000000000001     
   4563.0709999999999       ,   0.13710961498537769       ,   0.18187999999999999     
   4567.3530000000001       ,   0.13763073492962036       ,   0.18972000000000000     
   4571.6379999999999       ,   0.13725817148789135       ,   0.19189999999999999     
   4575.9269999999997       ,   0.13604786441943675       ,   0.18909999999999999     
   4580.2209999999995       ,   0.13466787407849157       ,   0.18002000000000001     
   4584.5180000000000       ,   0.13362175523038666       ,   0.17088000000000000     
   4588.8199999999997       ,   0.13301642608022399       ,   0.16208000000000000     
   4593.1250000000000       ,   0.13274491698046653       ,   0.15558000000000000     
   4597.4349999999995       ,   0.13265241455384028       ,   0.15168999999999999     
   4601.7479999999996       ,   0.13259437522973272       ,   0.14982000000000001     
   4606.0650000000005       ,   0.13242150926862062       ,   0.15018000000000001     
   4610.3870000000006       ,   0.13207282192257785       ,   0.14942000000000000     
   4614.7129999999997       ,   0.13166029551971697       ,   0.14688999999999999     
   4619.0420000000004       ,   0.13130904406091853       ,   0.14466000000000001     
   4623.3760000000002       ,   0.13105838862995792       ,   0.14269999999999999     
   4627.7139999999999       ,   0.13089360558610025       ,   0.14227999999999999     
   4632.0560000000005       ,   0.13079079327507193       ,   0.14273000000000000     
   4636.4020000000000       ,   0.13073652688106543       ,   0.14465000000000000     
   4640.7520000000004       ,   0.13072391819074897       ,   0.14499999999999999     
   4645.1059999999998       ,   0.13076231038937244       ,   0.14624000000000001     
   4649.4639999999999       ,   0.13087202280002019       ,   0.14770000000000000     
   4653.8260000000000       ,   0.13108510642982471       ,   0.14802999999999999     
   4658.1939999999995       ,   0.13143508448809954       ,   0.14985999999999999     
   4662.5639999999994       ,   0.13192709946283371       ,   0.15150000000000000     
   4666.9380000000001       ,   0.13251049157290745       ,   0.15626000000000001     
   4671.3170000000000       ,   0.13308399117461756       ,   0.16139999999999999     
   4675.6999999999998       ,   0.13350156875772876       ,   0.16649000000000000     
   4680.0879999999997       ,   0.13355140509019342       ,   0.16969999999999999     
   4684.4780000000001       ,   0.13319217090774868       ,   0.16780000000000000     
   4688.8730000000005       ,   0.13274297663027740       ,   0.16447999999999999     
   4693.2729999999992       ,   0.13254398375216941       ,   0.16033000000000000     
   4697.6760000000004       ,   0.13273240176971240       ,   0.15892000000000001     
   4702.0839999999998       ,   0.13326499370123604       ,   0.16258000000000000     
   4706.4949999999999       ,   0.13398074205866667       ,   0.16921000000000000     
   4710.9110000000001       ,   0.13466077422215089       ,   0.17877000000000001     
   4715.3310000000001       ,   0.13501224818177052       ,   0.18878000000000000     
   4719.7550000000001       ,   0.13468949471505900       ,   0.19155000000000000     
   4724.1840000000002       ,   0.13375275479681106       ,   0.18692000000000000     
   4728.6160000000000       ,   0.13268196760724679       ,   0.17746000000000001     
   4733.0529999999999       ,   0.13181826916507317       ,   0.16661999999999999     
   4737.4929999999995       ,   0.13122761025617605       ,   0.15881999999999999     
   4741.9380000000001       ,   0.13084509616150788       ,   0.15170000000000000     
   4746.3870000000006       ,   0.13059399227977581       ,   0.14757000000000001     
   4750.8400000000001       ,   0.13042296123885458       ,   0.14455000000000001     
   4755.2979999999998       ,   0.13030572786364580       ,   0.14232000000000000     
   4759.7600000000002       ,   0.13023151642376787       ,   0.14202999999999999     
   4764.2249999999995       ,   0.13019859477067697       ,   0.14080999999999999     
   4768.6949999999997       ,   0.13021306548601130       ,   0.14032000000000000     
   4773.1700000000001       ,   0.13028441909799784       ,   0.14049000000000000     
   4777.6480000000001       ,   0.13041938906656067       ,   0.14301000000000000     
   4782.1309999999994       ,   0.13060756426502954       ,   0.14335000000000001     
   4786.6169999999993       ,   0.13081540895719224       ,   0.14465000000000000     
   4791.1089999999995       ,   0.13099229818840724       ,   0.14779000000000000     
   4795.6040000000003       ,   0.13106364535898479       ,   0.15303000000000000     
   4800.1030000000001       ,   0.13095459315266553       ,   0.15454999999999999     
   4804.6070000000000       ,   0.13071488163358233       ,   0.15448999999999999     
   4809.1140000000005       ,   0.13048097734935038       ,   0.15296000000000001     
   4813.6260000000002       ,   0.13033821054365013       ,   0.14882999999999999     
   4818.1419999999998       ,   0.13030210336074213       ,   0.14762000000000000     
   4822.6639999999998       ,   0.13035043771713023       ,   0.14507999999999999     
   4827.1879999999992       ,   0.13044531516875790       ,   0.14360000000000001     
   4831.7180000000008       ,   0.13054357231838018       ,   0.14337000000000000     
   4836.2510000000002       ,   0.13059445343484818       ,   0.14287000000000000     
   4840.7879999999996       ,   0.13054612044843003       ,   0.14274999999999999     
   4845.3299999999999       ,   0.13042468589821152       ,   0.14112000000000000     
   4849.8760000000002       ,   0.13033874666021528       ,   0.14140000000000000     
   4854.4270000000006       ,   0.13037769883192601       ,   0.14238000000000001     
   4858.9820000000000       ,   0.13058069234431224       ,   0.14341000000000001     
   4863.5400000000009       ,   0.13093944586435435       ,   0.14630000000000001     
   4868.1030000000001       ,   0.13139698591472213       ,   0.15106000000000000     
   4872.6710000000003       ,   0.13185571258065085       ,   0.15568000000000001     
   4877.2420000000002       ,   0.13218262739338696       ,   0.15989999999999999     
   4881.8180000000002       ,   0.13219870944870479       ,   0.16175000000000000     
   4886.3990000000003       ,   0.13188504700341319       ,   0.16489000000000001     
   4890.9840000000004       ,   0.13152899060518491       ,   0.16200000000000001     
   4895.5719999999992       ,   0.13143950598938650       ,   0.15920999999999999     
   4900.1659999999993       ,   0.13178289904224380       ,   0.15903999999999999     
   4904.7629999999999       ,   0.13259310535757066       ,   0.15801999999999999     
   4909.3649999999998       ,   0.13376783157015376       ,   0.16305000000000000     
   4913.9710000000005       ,   0.13506385355324016       ,   0.17344999999999999     
   4918.5819999999994       ,   0.13613921469578519       ,   0.18345000000000000     
   4923.1970000000001       ,   0.13649977228662247       ,   0.18804000000000001     
   4927.8159999999998       ,   0.13571405830695327       ,   0.18637000000000001     
   4932.4389999999994       ,   0.13414417826942693       ,   0.17671000000000001     
   4937.0670000000000       ,   0.13256825959402407       ,   0.16900000000000001     
   4941.6989999999996       ,   0.13139286481663912       ,   0.15704000000000001     
