Flight time (us) , Calculated , Experiment
   3990.3940000000002       ,   0.12506890660417266       ,   0.15003000000000000     
   3994.1390000000001       ,   0.12503939451535501       ,   0.15043999999999999     
   3997.8860000000000       ,   0.12500603433979665       ,   0.15013000000000001     
   4001.6369999999997       ,   0.12497359764034104       ,   0.14829999999999999     
   4005.3910000000005       ,   0.12494220910746751       ,   0.14918000000000001     
   4009.1500000000001       ,   0.12491203555250689       ,   0.15082999999999999     
   4012.9110000000001       ,   0.12488349447769123       ,   0.15228000000000000     
   4016.6760000000004       ,   0.12485686952332818       ,   0.15304000000000001     
   4020.4440000000004       ,   0.12483308497826802       ,   0.15329999999999999     
   4024.2170000000001       ,   0.12481346263648865       ,   0.15187999999999999     
   4027.9920000000002       ,   0.12480006220969293       ,   0.15038000000000001     
   4031.7719999999999       ,   0.12479573480369723       ,   0.15035999999999999     
   4035.5540000000001       ,   0.12480397891570835       ,   0.15084000000000000     
   4039.3410000000003       ,   0.12482829652634679       ,   0.15100000000000000     
   4043.1299999999997       ,   0.12487114680666127       ,   0.15126999999999999     
   4046.9239999999995       ,   0.12493318370127611       ,   0.15262999999999999     
   4050.7220000000002       ,   0.12501337563044787       ,   0.15146999999999999     
   4054.5220000000004       ,   0.12511039738523816       ,   0.15021000000000001     
   4058.3260000000000       ,   0.12522364279078110       ,   0.15026000000000000     
   4062.1330000000003       ,   0.12535101805488366       ,   0.15018000000000001     
   4065.9450000000002       ,   0.12548813443218224       ,   0.15010000000000001     
   4069.7599999999998       ,   0.12563453692502383       ,   0.15110000000000001     
   4073.5780000000004       ,   0.12579452308330547       ,   0.15306000000000000     
   4077.4000000000001       ,   0.12596466373125412       ,   0.15473000000000001     
   4081.2249999999999       ,   0.12612644572133874       ,   0.15948000000000001     
   4085.0549999999998       ,   0.12624622984822384       ,   0.16672999999999999     
   4088.8869999999997       ,   0.12627609907681014       ,   0.17272999999999999     
   4092.7239999999997       ,   0.12618112131105538       ,   0.17527000000000001     
   4096.5640000000003       ,   0.12598465012104335       ,   0.17287000000000000     
   4100.4069999999992       ,   0.12575360392871693       ,   0.16780000000000000     
   4104.2550000000001       ,   0.12554523765532546       ,   0.16155000000000000     
   4108.1060000000007       ,   0.12537935864761582       ,   0.15689000000000000     
   4111.9600000000000       ,   0.12524268768207358       ,   0.15487000000000001     
   4115.8180000000002       ,   0.12510548882996372       ,   0.15271000000000001     
   4119.6790000000001       ,   0.12494827959004133       ,   0.15043999999999999     
   4123.5450000000001       ,   0.12477949123807663       ,   0.14763000000000001     
   4127.4139999999998       ,   0.12462250536449114       ,   0.14605000000000001     
   4131.2870000000003       ,   0.12449486985473460       ,   0.14482999999999999     
   4135.1630000000005       ,   0.12440244419463527       ,   0.14293000000000000     
   4139.0419999999995       ,   0.12434304418498432       ,   0.14232000000000000     
   4142.9260000000004       ,   0.12431192294345728       ,   0.14194999999999999     
   4146.8119999999999       ,   0.12430307802939329       ,   0.14136000000000001     
   4150.7030000000004       ,   0.12431316715897743       ,   0.14208999999999999     
   4154.5980000000000       ,   0.12434158369537099       ,   0.14294000000000001     
   4158.4960000000001       ,   0.12439181566496404       ,   0.14388000000000001     
   4162.3969999999999       ,   0.12447089912653554       ,   0.14493000000000000     
   4166.3029999999999       ,   0.12458671742295815       ,   0.14535999999999999     
   4170.2120000000004       ,   0.12474542045854980       ,   0.14641999999999999     
   4174.1239999999998       ,   0.12495089814666281       ,   0.14734000000000000     
   4178.0410000000002       ,   0.12519897083464721       ,   0.14828000000000000     
   4181.9610000000002       ,   0.12546891121217646       ,   0.15176000000000001     
   4185.8840000000000       ,   0.12572467077399019       ,   0.15748999999999999     
   4189.8119999999999       ,   0.12591918822016732       ,   0.16542000000000001     
   4193.7430000000004       ,   0.12599071608349757       ,   0.17358999999999999     
   4197.6779999999999       ,   0.12589325714499749       ,   0.17732000000000001     
   4201.6160000000000       ,   0.12565289500780286       ,   0.17519000000000001     
   4205.5580000000000       ,   0.12535978693378805       ,   0.16816999999999999     
   4209.5039999999999       ,   0.12509629057095437       ,   0.16172000000000000     
   4213.4539999999997       ,   0.12489814391101611       ,   0.15845999999999999     
   4217.4069999999992       ,   0.12476032568054261       ,   0.15554999999999999     
   4221.3640000000005       ,   0.12465564902164879       ,   0.15306000000000000     
   4225.3249999999998       ,   0.12455675350574176       ,   0.15160000000000001     
   4229.2889999999998       ,   0.12445834648296050       ,   0.15095000000000000     
   4233.2569999999996       ,   0.12437589468957307       ,   0.15013000000000001     
   4237.2290000000003       ,   0.12432590049257189       ,   0.14904000000000001     
   4241.2049999999999       ,   0.12431574773606935       ,   0.14962000000000000     
   4245.1830000000000       ,   0.12434559315639479       ,   0.15003000000000000     
   4249.1669999999995       ,   0.12441229536255377       ,   0.15159000000000000     
   4253.1530000000002       ,   0.12451321501783738       ,   0.15301000000000001     
   4257.1430000000000       ,   0.12465152218635712       ,   0.15337000000000001     
   4261.1369999999997       ,   0.12483115331578040       ,   0.15426000000000001     
   4265.1360000000004       ,   0.12504455121878216       ,   0.15612999999999999     
   4269.1379999999999       ,   0.12526870234801787       ,   0.15844000000000000     
   4273.1430000000000       ,   0.12546938697451607       ,   0.16150000000000000     
   4277.1530000000002       ,   0.12560146844693032       ,   0.16567999999999999     
   4281.1660000000002       ,   0.12562146714996086       ,   0.16775999999999999     
   4285.1819999999998       ,   0.12553823898673094       ,   0.16661000000000001     
   4289.2029999999995       ,   0.12542486217759655       ,   0.16253000000000001     
   4293.2269999999999       ,   0.12535386752924740       ,   0.15831000000000001     
   4297.2560000000003       ,   0.12535128761939762       ,   0.15833000000000000     
   4301.2870000000003       ,   0.12539898822857926       ,   0.16109000000000001     
   4305.3229999999994       ,   0.12545305219322045       ,   0.16341000000000000     
   4309.3630000000003       ,   0.12546118350343816       ,   0.16603000000000001     
   4313.4050000000007       ,   0.12540439397934661       ,   0.16533999999999999     
   4317.4520000000002       ,   0.12532521282145045       ,   0.16216000000000000     
   4321.5029999999997       ,   0.12528293915312852       ,   0.15789000000000000     
   4325.5580000000000       ,   0.12530005717831252       ,   0.15504000000000001     
   4329.6170000000002       ,   0.12535428026432396       ,   0.15440999999999999     
   4333.6790000000001       ,   0.12539354722016774       ,   0.15440000000000001     
   4337.7449999999999       ,   0.12534848954876276       ,   0.15589000000000000     
   4341.8150000000005       ,   0.12516788642426532       ,   0.15587000000000001     
   4345.8880000000008       ,   0.12487213293261490       ,   0.15429999999999999     
   4349.9660000000003       ,   0.12454396090438892       ,   0.14948000000000000     
   4354.0469999999996       ,   0.12425685104054952       ,   0.14521000000000001     
   4358.1320000000005       ,   0.12404349498682930       ,   0.14285999999999999     
   4362.2209999999995       ,   0.12390470928712115       ,   0.14127000000000001     
   4366.3140000000003       ,   0.12382812566882616       ,   0.14127000000000001     
   4370.4110000000001       ,   0.12380117477449497       ,   0.14157000000000000     
   4374.5120000000006       ,   0.12381503369795126       ,   0.14202999999999999     
   4378.6160000000000       ,   0.12386320651868317       ,   0.14405000000000001     
   4382.7239999999993       ,   0.12393995644201840       ,   0.14258999999999999     
   4386.8359999999993       ,   0.12403976647088233       ,   0.14230999999999999     
   4390.9520000000002       ,   0.12415802406337925       ,   0.14413000000000001     
   4395.0720000000001       ,   0.12429352444599774       ,   0.14751000000000000     
   4399.1949999999997       ,   0.12444491741620406       ,   0.14929999999999999     
   4403.3230000000003       ,   0.12462250144674637       ,   0.14992000000000000     
   4407.4540000000006       ,   0.12485638382754650       ,   0.15010000000000001     
   4411.5889999999999       ,   0.12518177845637560       ,   0.14938000000000001     
   4415.7289999999994       ,   0.12560230513419809       ,   0.14927000000000001     
   4419.8719999999994       ,   0.12607609323362595       ,   0.15495000000000000     
   4424.0180000000000       ,   0.12653075449168003       ,   0.16427000000000000     
   4428.1689999999999       ,   0.12687579698441118       ,   0.17324999999999999     
   4432.3240000000005       ,   0.12700796878811726       ,   0.18099999999999999     
   4436.4830000000002       ,   0.12688619430725184       ,   0.18154999999999999     
   4440.6459999999997       ,   0.12662079449404728       ,   0.17599999999999999     
   4444.8109999999997       ,   0.12639083332089485       ,   0.16797999999999999     
   4448.9809999999998       ,   0.12630254778607289       ,   0.16335000000000000     
   4453.1559999999999       ,   0.12635108910015561       ,   0.16102000000000000     
   4457.3340000000007       ,   0.12645607469182862       ,   0.16052000000000000     
   4461.5159999999996       ,   0.12649943638358757       ,   0.16411999999999999     
   4465.7020000000002       ,   0.12635480382586406       ,   0.16506000000000001     
   4469.8930000000000       ,   0.12597550300882532       ,   0.16261999999999999     
   4474.0859999999993       ,   0.12545918245384935       ,   0.15962000000000001     
   4478.2830000000004       ,   0.12495495823628798       ,   0.15318000000000001     
   4482.4859999999999       ,   0.12455719628847531       ,   0.14820000000000000     
   4486.6910000000007       ,   0.12428945077195437       ,   0.14535000000000001     
   4490.9009999999998       ,   0.12413449243504866       ,   0.14318000000000000     
   4495.1140000000005       ,   0.12406666009265913       ,   0.14291999999999999     
   4499.3320000000003       ,   0.12406864535948041       ,   0.14318000000000000     
   4503.5529999999999       ,   0.12413886603685052       ,   0.14302999999999999     
   4507.7780000000002       ,   0.12428730591444996       ,   0.14279000000000000     
   4512.0079999999998       ,   0.12451887796003965       ,   0.14224000000000001     
   4516.2420000000002       ,   0.12481578898050717       ,   0.14523000000000000     
   4520.4790000000003       ,   0.12514018021697282       ,   0.14729999999999999     
   4524.7200000000003       ,   0.12544212598554827       ,   0.15246999999999999     
   4528.9659999999994       ,   0.12566439688195144       ,   0.15872000000000000     
   4533.2150000000001       ,   0.12575021280614412       ,   0.16214000000000001     
   4537.4679999999998       ,   0.12570697730562677       ,   0.16144000000000000     
   4541.7249999999995       ,   0.12564643720697330       ,   0.15734000000000001     
   4545.9849999999997       ,   0.12569621023817457       ,   0.15407999999999999     
   4550.2510000000002       ,   0.12590457624303536       ,   0.15393000000000001     
   4554.5210000000006       ,   0.12622728537868125       ,   0.15898000000000001     
   4558.7939999999999       ,   0.12656332754631877       ,   0.16627000000000000     
   4563.0709999999999       ,   0.12678485970329698       ,   0.17358000000000001     
   4567.3530000000001       ,   0.12675212780773412       ,   0.18068999999999999     
   4571.6379999999999       ,   0.12640362040559480       ,   0.18032000000000001     
   4575.9269999999997       ,   0.12585291154309428       ,   0.17316000000000001     
   4580.2209999999995       ,   0.12529543507852803       ,   0.16447999999999999     
   4584.5180000000000       ,   0.12486176427374190       ,   0.15651000000000001     
   4588.8199999999997       ,   0.12458192817460718       ,   0.14990000000000001     
   4593.1250000000000       ,   0.12442157013838634       ,   0.14646999999999999     
   4597.4349999999995       ,   0.12432302886908399       ,   0.14383000000000001     
   4601.7479999999996       ,   0.12422815748955773       ,   0.14263999999999999     
   4606.0650000000005       ,   0.12409643326041418       ,   0.14190000000000000     
   4610.3870000000006       ,   0.12393004351228559       ,   0.14061999999999999     
   4614.7129999999997       ,   0.12376354966028229       ,   0.13804000000000000     
   4619.0420000000004       ,   0.12362783705371554       ,   0.13575999999999999     
   4623.3760000000002       ,   0.12353490480658204       ,   0.13572999999999999     
   4627.7139999999999       ,   0.12348352832849631       ,   0.13675999999999999     
   4632.0560000000005       ,   0.12346976306783419       ,   0.13628999999999999     
   4636.4020000000000       ,   0.12348808573812130       ,   0.13611000000000001     
   4640.7520000000004       ,   0.12354217516768806       ,   0.13816000000000001     
   4645.1059999999998       ,   0.12363944323289716       ,   0.13914000000000001     
   4649.4639999999999       ,   0.12378878955209521       ,   0.13997000000000001     
   4653.8260000000000       ,   0.12399635215305110       ,   0.14190000000000000     
   4658.1939999999995       ,   0.12425882966416463       ,   0.14352999999999999     
   4662.5639999999994       ,   0.12455398191481418       ,   0.14544000000000001     
   4666.9380000000001       ,   0.12484198173635623       ,   0.14871000000000001     
   4671.3170000000000       ,   0.12507170644107354       ,   0.15271000000000001     
   4675.6999999999998       ,   0.12518275016410704       ,   0.15673999999999999     
   4680.0879999999997       ,   0.12514124922223982       ,   0.15890000000000001     
   4684.4780000000001       ,   0.12501292189626201       ,   0.15645999999999999     
   4688.8730000000005       ,   0.12493348322335480       ,   0.15311000000000000     
   4693.2729999999992       ,   0.12500267711228821       ,   0.15014000000000000     
   4697.6760000000004       ,   0.12523352558017323       ,   0.15082999999999999     
   4702.0839999999998       ,   0.12556480682575177       ,   0.15501000000000001     
   4706.4949999999999       ,   0.12589512201674688       ,   0.16420000000000001     
   4710.9110000000001       ,   0.12610537532241259       ,   0.17377000000000001     
   4715.3310000000001       ,   0.12606637094218229       ,   0.17957000000000001     
   4719.7550000000001       ,   0.12572227577985781       ,   0.17782999999999999     
   4724.1840000000002       ,   0.12518083814524802       ,   0.17110000000000000     
   4728.6160000000000       ,   0.12461971433271195       ,   0.16092999999999999     
   4733.0529999999999       ,   0.12415555025635405       ,   0.15178000000000000     
   4737.4929999999995       ,   0.12382086274205667       ,   0.14570000000000000     
   4741.9380000000001       ,   0.12359734142697046       ,   0.14230000000000001     
   4746.3870000000006       ,   0.12345258255175029       ,   0.13875999999999999     
   4750.8400000000001       ,   0.12335987973615835       ,   0.13632000000000000     
   4755.2979999999998       ,   0.12330381941200508       ,   0.13469999999999999     
   4759.7600000000002       ,   0.12327810324820104       ,   0.13405000000000000     
   4764.2249999999995       ,   0.12328171823464977       ,   0.13389000000000001     
   4768.6949999999997       ,   0.12331575772506248       ,   0.13370000000000001     
   4773.1700000000001       ,   0.12337826139322818       ,   0.13416000000000000     
   4777.6480000000001       ,   0.12346284484144381       ,   0.13471000000000000     
   4782.1309999999994       ,   0.12355657093330864       ,   0.13642000000000001     
   4786.6169999999993       ,   0.12364180823248395       ,   0.13805999999999999     
   4791.1089999999995       ,   0.12369713864679188       ,   0.14033000000000001     
   4795.6040000000003       ,   0.12369957958774908       ,   0.14283000000000001     
   4800.1030000000001       ,   0.12364525770444566       ,   0.14315000000000000     
   4804.6070000000000       ,   0.12356302540400597       ,   0.14213000000000001     
   4809.1140000000005       ,   0.12349064333987146       ,   0.14105999999999999     
   4813.6260000000002       ,   0.12345171868288592       ,   0.13869000000000001     
   4818.1419999999998       ,   0.12345083281877239       ,   0.13755000000000001     
   4822.6639999999998       ,   0.12347810184785613       ,   0.13630000000000000     
   4827.1879999999992       ,   0.12351704650475691       ,   0.13481000000000001     
   4831.7180000000008       ,   0.12355020749932302       ,   0.13506000000000001     
   4836.2510000000002       ,   0.12356202329790589       ,   0.13627000000000000     
   4840.7879999999996       ,   0.12355357631122861       ,   0.13469999999999999     
   4845.3299999999999       ,   0.12355396428778370       ,   0.13345000000000001     
   4849.8760000000002       ,   0.12360530283522821       ,   0.13450999999999999     
   4854.4270000000006       ,   0.12373376221695755       ,   0.13653000000000001     
   4858.9820000000000       ,   0.12393879232963081       ,   0.13722999999999999     
   4863.5400000000009       ,   0.12419414327181882       ,   0.14124999999999999     
   4868.1030000000001       ,   0.12445717283117336       ,   0.14351000000000000     
   4872.6710000000003       ,   0.12467760647895507       ,   0.14763999999999999     
   4877.2420000000002       ,   0.12480046302651517       ,   0.15250000000000000     
   4881.8180000000002       ,   0.12480162054019465       ,   0.15386000000000000     
   4886.3990000000003       ,   0.12475773910854925       ,   0.15268000000000001     
   4890.9840000000004       ,   0.12481801894851219       ,   0.14951000000000000     
   4895.5719999999992       ,   0.12510671096869808       ,   0.14879000000000001     
   4900.1659999999993       ,   0.12566692729114040       ,   0.14857999999999999     
   4904.7629999999999       ,   0.12644238752208797       ,   0.15012000000000000     
   4909.3649999999998       ,   0.12729163668159174       ,   0.15673999999999999     
   4913.9710000000005       ,   0.12802297288508468       ,   0.16725000000000001     
   4918.5819999999994       ,   0.12840534393830641       ,   0.17494999999999999     
   4923.1970000000001       ,   0.12820449510658075       ,   0.17743999999999999     
   4927.8159999999998       ,   0.12740558191104914       ,   0.17394999999999999     
   4932.4389999999994       ,   0.12632052738507549       ,   0.16472000000000001     
   4937.0670000000000       ,   0.12530301964388008       ,   0.15425000000000000     
   4941.6989999999996       ,   0.12452907193758440       ,   0.14702000000000001     
