Flight time (us) , Calculated , Experiment
   3990.3940000000002       ,   0.12685592188289108       ,   0.15715999999999999     
   3994.1390000000001       ,   0.12692150795372809       ,   0.15780000000000000     
   3997.8860000000000       ,   0.12698243226130965       ,   0.15898999999999999     
   4001.6369999999997       ,   0.12704314054980695       ,   0.15817999999999999     
   4005.3910000000005       ,   0.12710368829109872       ,   0.15698000000000001     
   4009.1500000000001       ,   0.12716420590522787       ,   0.15944000000000000     
   4012.9110000000001       ,   0.12722490483958696       ,   0.16078000000000001     
   4016.6760000000004       ,   0.12728577530981333       ,   0.16044000000000000     
   4020.4440000000004       ,   0.12734723506887127       ,   0.16055000000000000     
   4024.2170000000001       ,   0.12740982263434100       ,   0.16039999999999999     
   4027.9920000000002       ,   0.12747433709161748       ,   0.15811000000000000     
   4031.7719999999999       ,   0.12754228222411504       ,   0.15706999999999999     
   4035.5540000000001       ,   0.12761604994995890       ,   0.15817000000000001     
   4039.3410000000003       ,   0.12769955400540722       ,   0.16006999999999999     
   4043.1299999999997       ,   0.12779800614550985       ,   0.16125000000000000     
   4046.9239999999995       ,   0.12791707242987715       ,   0.16167000000000001     
   4050.7220000000002       ,   0.12806014587112127       ,   0.16095999999999999     
   4054.5220000000004       ,   0.12822635655122716       ,   0.15914000000000000     
   4058.3260000000000       ,   0.12841218018668929       ,   0.15862999999999999     
   4062.1330000000003       ,   0.12861395702039627       ,   0.15959999999999999     
   4065.9450000000002       ,   0.12882397555794772       ,   0.16008000000000000     
   4069.7599999999998       ,   0.12904099750187875       ,   0.15953000000000001     
   4073.5780000000004       ,   0.12930257516010188       ,   0.15998000000000001     
   4077.4000000000001       ,   0.12964679952480013       ,   0.16092999999999999     
   4081.2249999999999       ,   0.13005977182820272       ,   0.16547999999999999     
   4085.0549999999998       ,   0.13048344405801604       ,   0.17321000000000000     
   4088.8869999999997       ,   0.13081667432479940       ,   0.17987000000000000     
   4092.7239999999997       ,   0.13089267334699495       ,   0.18479999999999999     
   4096.5640000000003       ,   0.13065608092871217       ,   0.18459000000000000     
   4100.4069999999992       ,   0.13029211173549099       ,   0.17963000000000001     
   4104.2550000000001       ,   0.12999098678349374       ,   0.17313000000000001     
   4108.1060000000007       ,   0.12981311743533716       ,   0.16816000000000000     
   4111.9600000000000       ,   0.12972923606951792       ,   0.16464000000000001     
   4115.8180000000002       ,   0.12967346798427012       ,   0.16181999999999999     
   4119.6790000000001       ,   0.12957609385538335       ,   0.15986000000000000     
   4123.5450000000001       ,   0.12943112433018641       ,   0.15670999999999999     
   4127.4139999999998       ,   0.12928928792763220       ,   0.15386000000000000     
   4131.2870000000003       ,   0.12918683008508802       ,   0.15248999999999999     
   4135.1630000000005       ,   0.12912963562350543       ,   0.15110000000000001     
   4139.0419999999995       ,   0.12911016222653565       ,   0.14949000000000001     
   4142.9260000000004       ,   0.12912097632579875       ,   0.14932000000000001     
   4146.8119999999999       ,   0.12915901179407246       ,   0.14999000000000001     
   4150.7030000000004       ,   0.12922146740058263       ,   0.15024000000000001     
   4154.5980000000000       ,   0.12930706200909114       ,   0.14957000000000001     
   4158.4960000000001       ,   0.12941337506657444       ,   0.15013000000000001     
   4162.3969999999999       ,   0.12953933998990938       ,   0.15135000000000001     
   4166.3029999999999       ,   0.12968691667860283       ,   0.15209000000000000     
   4170.2120000000004       ,   0.12985731905485845       ,   0.15261000000000000     
   4174.1239999999998       ,   0.13006581019312338       ,   0.15386000000000000     
   4178.0410000000002       ,   0.13035638840417635       ,   0.15531000000000000     
   4181.9610000000002       ,   0.13075665457389990       ,   0.15708000000000000     
   4185.8840000000000       ,   0.13123924855951255       ,   0.16327000000000000     
   4189.8119999999999       ,   0.13173281403407158       ,   0.17171000000000000     
   4193.7430000000004       ,   0.13212686804693413       ,   0.18115999999999999     
   4197.6779999999999       ,   0.13223501046765246       ,   0.18698000000000001     
   4201.6160000000000       ,   0.13197106314789048       ,   0.18656000000000000     
   4205.5580000000000       ,   0.13153484241067998       ,   0.18210000000000001     
   4209.5039999999999       ,   0.13116370757949306       ,   0.17433999999999999     
   4213.4539999999997       ,   0.13094380007394241       ,   0.16866999999999999     
   4217.4069999999992       ,   0.13084993462116024       ,   0.16542000000000001     
   4221.3640000000005       ,   0.13081814603305356       ,   0.16250999999999999     
   4225.3249999999998       ,   0.13077091187307519       ,   0.16159000000000001     
   4229.2889999999998       ,   0.13067100529801398       ,   0.16000000000000000     
   4233.2569999999996       ,   0.13056837035555610       ,   0.15679000000000001     
   4237.2290000000003       ,   0.13052349943357133       ,   0.15531000000000000     
   4241.2049999999999       ,   0.13055074131131109       ,   0.15507000000000001     
   4245.1830000000000       ,   0.13063092443151364       ,   0.15719000000000000     
   4249.1669999999995       ,   0.13073353329133844       ,   0.16050000000000000     
   4253.1530000000002       ,   0.13081701214275929       ,   0.16223000000000001     
   4257.1430000000000       ,   0.13086622834080699       ,   0.16349000000000000     
   4261.1369999999997       ,   0.13093912181791309       ,   0.16384000000000001     
   4265.1360000000004       ,   0.13110040987160559       ,   0.16469000000000000     
   4269.1379999999999       ,   0.13135763318960539       ,   0.16633000000000001     
   4273.1430000000000       ,   0.13166675759038626       ,   0.16936999999999999     
   4277.1530000000002       ,   0.13195690027477178       ,   0.17373000000000000     
   4281.1660000000002       ,   0.13211540797607590       ,   0.17670000000000000     
   4285.1819999999998       ,   0.13205472412156713       ,   0.17746999999999999     
   4289.2029999999995       ,   0.13188449401389349       ,   0.17527000000000001     
   4293.2269999999999       ,   0.13179459684007458       ,   0.17047000000000001     
   4297.2560000000003       ,   0.13186457991494624       ,   0.16874000000000000     
   4301.2870000000003       ,   0.13205976468855149       ,   0.17021000000000000     
   4305.3229999999994       ,   0.13229418676167445       ,   0.17355999999999999     
   4309.3630000000003       ,   0.13244474269045070       ,   0.17702000000000001     
   4313.4050000000007       ,   0.13237580525001261       ,   0.17574000000000001     
   4317.4520000000002       ,   0.13213078747758053       ,   0.17260000000000000     
   4321.5029999999997       ,   0.13190892145475833       ,   0.16966000000000001     
   4325.5580000000000       ,   0.13183677028604596       ,   0.16669000000000000     
   4329.6170000000002       ,   0.13191114844381452       ,   0.16428000000000001     
   4333.6790000000001       ,   0.13205890888373170       ,   0.16389999999999999     
   4337.7449999999999       ,   0.13217663497702845       ,   0.16520000000000001     
   4341.8150000000005       ,   0.13212450480132396       ,   0.16575999999999999     
   4345.8880000000008       ,   0.13184443322412950       ,   0.16309999999999999     
   4349.9660000000003       ,   0.13146735981090479       ,   0.15856999999999999     
   4354.0469999999996       ,   0.13113716033421235       ,   0.15554999999999999     
   4358.1320000000005       ,   0.13090434022218009       ,   0.15187999999999999     
   4362.2209999999995       ,   0.13075871881735213       ,   0.14846999999999999     
   4366.3140000000003       ,   0.13067671026029407       ,   0.14698000000000000     
   4370.4110000000001       ,   0.13064322114011406       ,   0.14674999999999999     
   4374.5120000000006       ,   0.13065467577180884       ,   0.14745000000000000     
   4378.6160000000000       ,   0.13071440884481378       ,   0.14907000000000001     
   4382.7239999999993       ,   0.13082704555308453       ,   0.14882999999999999     
   4386.8359999999993       ,   0.13099142400506475       ,   0.14856000000000000     
   4390.9520000000002       ,   0.13119354308956874       ,   0.15043999999999999     
   4395.0720000000001       ,   0.13140839310394897       ,   0.15314000000000000     
   4399.1949999999997       ,   0.13160402746740657       ,   0.15559000000000001     
   4403.3230000000003       ,   0.13173067395818097       ,   0.15756000000000001     
   4407.4540000000006       ,   0.13179010852413842       ,   0.15786000000000000     
   4411.5889999999999       ,   0.13189718518798560       ,   0.15841000000000000     
   4415.7289999999994       ,   0.13217047028639511       ,   0.15828999999999999     
   4419.8719999999994       ,   0.13263338444252035       ,   0.16172000000000000     
   4424.0180000000000       ,   0.13321384406008918       ,   0.17075000000000001     
   4428.1689999999999       ,   0.13378835569631603       ,   0.18092000000000000     
   4432.3240000000005       ,   0.13417752258866447       ,   0.18948999999999999     
   4436.4830000000002       ,   0.13414527173790142       ,   0.19411999999999999     
   4440.6459999999997       ,   0.13371825491096939       ,   0.19173000000000001     
   4444.8109999999997       ,   0.13325357800812193       ,   0.18434000000000000     
   4448.9809999999998       ,   0.13303314886299406       ,   0.17657000000000000     
   4453.1559999999999       ,   0.13310671346585282       ,   0.17204000000000000     
   4457.3340000000007       ,   0.13337113328446165       ,   0.17088000000000000     
   4461.5159999999996       ,   0.13366963945607988       ,   0.17335000000000000     
   4465.7020000000002       ,   0.13379727098308844       ,   0.17479000000000000     
   4469.8930000000000       ,   0.13353629005537779       ,   0.17413000000000001     
   4474.0859999999993       ,   0.13294820277759156       ,   0.17025999999999999     
   4478.2830000000004       ,   0.13232212542925564       ,   0.16333000000000000     
   4482.4859999999999       ,   0.13184578228455113       ,   0.15834000000000001     
   4486.6910000000007       ,   0.13154686629616852       ,   0.15501000000000001     
   4490.9009999999998       ,   0.13138048639791847       ,   0.15132999999999999     
   4495.1140000000005       ,   0.13129679126901572       ,   0.14984000000000000     
   4499.3320000000003       ,   0.13125917863337058       ,   0.14984000000000000     
   4503.5529999999999       ,   0.13124943683539242       ,   0.15024000000000001     
   4507.7780000000002       ,   0.13129043967452547       ,   0.15003000000000000     
   4512.0079999999998       ,   0.13143165141677407       ,   0.15060000000000001     
   4516.2420000000002       ,   0.13170132019681630       ,   0.15261000000000000     
   4520.4790000000003       ,   0.13208436408232307       ,   0.15456000000000000     
   4524.7200000000003       ,   0.13252128263826723       ,   0.16103000000000001     
   4528.9659999999994       ,   0.13292631547356232       ,   0.16682000000000000     
   4533.2150000000001       ,   0.13317019376880385       ,   0.17138000000000000     
   4537.4679999999998       ,   0.13311973900313198       ,   0.17293000000000000     
   4541.7249999999995       ,   0.13288383660961081       ,   0.16982000000000000     
   4545.9849999999997       ,   0.13275594676203414       ,   0.16592000000000001     
   4550.2510000000002       ,   0.13292588609455094       ,   0.16239000000000001     
   4554.5210000000006       ,   0.13339979630616905       ,   0.16502000000000000     
   4558.7939999999999       ,   0.13404920231474232       ,   0.17405000000000001     
   4563.0709999999999       ,   0.13468186200249679       ,   0.18187999999999999     
   4567.3530000000001       ,   0.13503678030995717       ,   0.18972000000000000     
   4571.6379999999999       ,   0.13479395488111687       ,   0.19189999999999999     
   4575.9269999999997       ,   0.13398963898758937       ,   0.18909999999999999     
   4580.2209999999995       ,   0.13305916795028924       ,   0.18002000000000001     
   4584.5180000000000       ,   0.13232995141035020       ,   0.17088000000000000     
   4588.8199999999997       ,   0.13187276446045773       ,   0.16208000000000000     
   4593.1250000000000       ,   0.13162429449461194       ,   0.15558000000000000     
   4597.4349999999995       ,   0.13149520936521086       ,   0.15168999999999999     
   4601.7479999999996       ,   0.13140872950973986       ,   0.14982000000000001     
   4606.0650000000005       ,   0.13129460878150864       ,   0.15018000000000001     
   4610.3870000000006       ,   0.13112265561485217       ,   0.14942000000000000     
   4614.7129999999997       ,   0.13093444000229942       ,   0.14688999999999999     
   4619.0420000000004       ,   0.13077776990977943       ,   0.14466000000000001     
   4623.3760000000002       ,   0.13066629460887966       ,   0.14269999999999999     
   4627.7139999999999       ,   0.13059293189485113       ,   0.14227999999999999     
   4632.0560000000005       ,   0.13054899620035038       ,   0.14273000000000000     
   4636.4020000000000       ,   0.13053229297164412       ,   0.14465000000000000     
   4640.7520000000004       ,   0.13054198834411657       ,   0.14499999999999999     
   4645.1059999999998       ,   0.13058886506997208       ,   0.14624000000000001     
   4649.4639999999999       ,   0.13069115131892423       ,   0.14770000000000000     
   4653.8260000000000       ,   0.13087595366543761       ,   0.14802999999999999     
   4658.1939999999995       ,   0.13117151531727603       ,   0.14985999999999999     
   4662.5639999999994       ,   0.13158280858622298       ,   0.15150000000000000     
   4666.9380000000001       ,   0.13206908832961339       ,   0.15626000000000001     
   4671.3170000000000       ,   0.13254834496249432       ,   0.16139999999999999     
   4675.6999999999998       ,   0.13290267854314025       ,   0.16649000000000000     
   4680.0879999999997       ,   0.13296191906170410       ,   0.16969999999999999     
   4684.4780000000001       ,   0.13269858653085251       ,   0.16780000000000000     
   4688.8730000000005       ,   0.13238501412653039       ,   0.16447999999999999     
   4693.2729999999992       ,   0.13231344925554478       ,   0.16033000000000000     
   4697.6760000000004       ,   0.13260600683611917       ,   0.15892000000000001     
   4702.0839999999998       ,   0.13322317057952496       ,   0.16258000000000000     
   4706.4949999999999       ,   0.13400859769187390       ,   0.16921000000000000     
   4710.9110000000001       ,   0.13474309446086993       ,   0.17877000000000001     
   4715.3310000000001       ,   0.13512720569863396       ,   0.18878000000000000     
   4719.7550000000001       ,   0.13480445123058513       ,   0.19155000000000000     
   4724.1840000000002       ,   0.13383940239982928       ,   0.18692000000000000     
   4728.6160000000000       ,   0.13273250963553690       ,   0.17746000000000001     
   4733.0529999999999       ,   0.13183935360020288       ,   0.16661999999999999     
   4737.4929999999995       ,   0.13122896113543020       ,   0.15881999999999999     
   4741.9380000000001       ,   0.13083399049225386       ,   0.15170000000000000     
   4746.3870000000006       ,   0.13057453769706773       ,   0.14757000000000001     
   4750.8400000000001       ,   0.13039696560987524       ,   0.14455000000000001     
   4755.2979999999998       ,   0.13027374889764301       ,   0.14232000000000000     
   4759.7600000000002       ,   0.13019319872061391       ,   0.14202999999999999     
   4764.2249999999995       ,   0.13015224131486708       ,   0.14080999999999999     
   4768.6949999999997       ,   0.13015494455497126       ,   0.14032000000000000     
   4773.1700000000001       ,   0.13020834798628320       ,   0.14049000000000000     
   4777.6480000000001       ,   0.13031761167216049       ,   0.14301000000000000     
   4782.1309999999994       ,   0.13047330677747429       ,   0.14335000000000001     
   4786.6169999999993       ,   0.13064622283024141       ,   0.14465000000000000     
   4791.1089999999995       ,   0.13079261560419397       ,   0.14779000000000000     
   4795.6040000000003       ,   0.13084855443706439       ,   0.15303000000000000     
   4800.1030000000001       ,   0.13074966534563051       ,   0.15454999999999999     
   4804.6070000000000       ,   0.13053719686743703       ,   0.15448999999999999     
   4809.1140000000005       ,   0.13032546549643445       ,   0.15296000000000001     
   4813.6260000000002       ,   0.13018464722412143       ,   0.14882999999999999     
   4818.1419999999998       ,   0.13012602770085882       ,   0.14762000000000000     
   4822.6639999999998       ,   0.13013137012563758       ,   0.14507999999999999     
   4827.1879999999992       ,   0.13017341679914460       ,   0.14360000000000001     
   4831.7180000000008       ,   0.13022348541269677       ,   0.14337000000000000     
   4836.2510000000002       ,   0.13025010868852821       ,   0.14287000000000000     
   4840.7879999999996       ,   0.13022326339009252       ,   0.14274999999999999     
   4845.3299999999999       ,   0.13016304448870736       ,   0.14112000000000000     
   4849.8760000000002       ,   0.13014568250091485       ,   0.14140000000000000     
   4854.4270000000006       ,   0.13023844388362535       ,   0.14238000000000001     
   4858.9820000000000       ,   0.13047649604666306       ,   0.14341000000000001     
   4863.5400000000009       ,   0.13085589837280479       ,   0.14630000000000001     
   4868.1030000000001       ,   0.13132488573117099       ,   0.15106000000000000     
   4872.6710000000003       ,   0.13178954396414108       ,   0.15568000000000001     
   4877.2420000000002       ,   0.13211942051810385       ,   0.15989999999999999     
   4881.8180000000002       ,   0.13213754762388158       ,   0.16175000000000000     
   4886.3990000000003       ,   0.13182578698757530       ,   0.16489000000000001     
   4890.9840000000004       ,   0.13147048242837481       ,   0.16200000000000001     
   4895.5719999999992       ,   0.13137895229957547       ,   0.15920999999999999     
   4900.1659999999993       ,   0.13171576596672266       ,   0.15903999999999999     
   4904.7629999999999       ,   0.13251379660811585       ,   0.15801999999999999     
   4909.3649999999998       ,   0.13367158545123659       ,   0.16305000000000000     
   4913.9710000000005       ,   0.13494897550366036       ,   0.17344999999999999     
   4918.5819999999994       ,   0.13600857236430780       ,   0.18345000000000000     
   4923.1970000000001       ,   0.13636285347525814       ,   0.18804000000000001     
   4927.8159999999998       ,   0.13558613205194764       ,   0.18637000000000001     
   4932.4389999999994       ,   0.13403562074852515       ,   0.17671000000000001     
   4937.0670000000000       ,   0.13247891963419350       ,   0.16900000000000001     
   4941.6989999999996       ,   0.13131693237939060       ,   0.15704000000000001     
