Flight time (us) , Calculated , Experiment
   3990.3940000000002       ,   0.12506874957255790       ,   0.15003000000000000     
   3994.1390000000001       ,   0.12503930978729214       ,   0.15043999999999999     
   3997.8860000000000       ,   0.12500600184309518       ,   0.15013000000000001     
   4001.6369999999997       ,   0.12497364418299438       ,   0.14829999999999999     
   4005.3910000000005       ,   0.12494237784547968       ,   0.14918000000000001     
   4009.1500000000001       ,   0.12491239783354204       ,   0.15082999999999999     
   4012.9110000000001       ,   0.12488416587709918       ,   0.15228000000000000     
   4016.6760000000004       ,   0.12485806692446388       ,   0.15304000000000001     
   4020.4440000000004       ,   0.12483517498437081       ,   0.15329999999999999     
   4024.2170000000001       ,   0.12481707149756235       ,   0.15187999999999999     
   4027.9920000000002       ,   0.12480621298971238       ,   0.15038000000000001     
   4031.7719999999999       ,   0.12480599496402356       ,   0.15035999999999999     
   4035.5540000000001       ,   0.12482051991566832       ,   0.15084000000000000     
   4039.3410000000003       ,   0.12485375179023697       ,   0.15100000000000000     
   4043.1299999999997       ,   0.12490809527410728       ,   0.15126999999999999     
   4046.9239999999995       ,   0.12498328763525993       ,   0.15262999999999999     
   4050.7220000000002       ,   0.12507630794996674       ,   0.15146999999999999     
   4054.5220000000004       ,   0.12518291972019471       ,   0.15021000000000001     
   4058.3260000000000       ,   0.12529894360748886       ,   0.15026000000000000     
   4062.1330000000003       ,   0.12541809819717065       ,   0.15018000000000001     
   4065.9450000000002       ,   0.12553223969819499       ,   0.15010000000000001     
   4069.7599999999998       ,   0.12564098603867069       ,   0.15110000000000001     
   4073.5780000000004       ,   0.12575411328538136       ,   0.15306000000000000     
   4077.4000000000001       ,   0.12587603337863679       ,   0.15473000000000001     
   4081.2249999999999       ,   0.12599516985582163       ,   0.15948000000000001     
   4085.0549999999998       ,   0.12608332325990307       ,   0.16672999999999999     
   4088.8869999999997       ,   0.12609764224749354       ,   0.17272999999999999     
   4092.7239999999997       ,   0.12600609674527122       ,   0.17527000000000001     
   4096.5640000000003       ,   0.12582856151937416       ,   0.17287000000000000     
   4100.4069999999992       ,   0.12562349373034054       ,   0.16780000000000000     
   4104.2550000000001       ,   0.12544038528947229       ,   0.16155000000000000     
   4108.1060000000007       ,   0.12529505422264484       ,   0.15689000000000000     
   4111.9600000000000       ,   0.12517372700607698       ,   0.15487000000000001     
   4115.8180000000002       ,   0.12504802960307715       ,   0.15271000000000001     
   4119.6790000000001       ,   0.12489986743366444       ,   0.15043999999999999     
   4123.5450000000001       ,   0.12473802353586672       ,   0.14763000000000001     
   4127.4139999999998       ,   0.12458549457193283       ,   0.14605000000000001     
   4131.2870000000003       ,   0.12445945717281511       ,   0.14482999999999999     
   4135.1630000000005       ,   0.12436570647249082       ,   0.14293000000000000     
   4139.0419999999995       ,   0.12430224732552804       ,   0.14232000000000000     
   4142.9260000000004       ,   0.12426468813848356       ,   0.14194999999999999     
   4146.8119999999999       ,   0.12424779605091631       ,   0.14136000000000001     
   4150.7030000000004       ,   0.12424918738817600       ,   0.14208999999999999     
   4154.5980000000000       ,   0.12426916604503969       ,   0.14294000000000001     
   4158.4960000000001       ,   0.12431196985762924       ,   0.14388000000000001     
   4162.3969999999999       ,   0.12438556374490868       ,   0.14493000000000000     
   4166.3029999999999       ,   0.12449939642913121       ,   0.14535999999999999     
   4170.2120000000004       ,   0.12466111947211456       ,   0.14641999999999999     
   4174.1239999999998       ,   0.12487390209069554       ,   0.14734000000000000     
   4178.0410000000002       ,   0.12513048365676191       ,   0.14828000000000000     
   4181.9610000000002       ,   0.12540705142234010       ,   0.15176000000000001     
   4185.8840000000000       ,   0.12566599287371616       ,   0.15748999999999999     
   4189.8119999999999       ,   0.12586011596561669       ,   0.16542000000000001     
   4193.7430000000004       ,   0.12592816190327816       ,   0.17358999999999999     
   4197.6779999999999       ,   0.12582483700697311       ,   0.17732000000000001     
   4201.6160000000000       ,   0.12557668943284189       ,   0.17519000000000001     
   4205.5580000000000       ,   0.12527424646519028       ,   0.16816999999999999     
   4209.5039999999999       ,   0.12500041474139764       ,   0.16172000000000000     
   4213.4539999999997       ,   0.12479176112767951       ,   0.15845999999999999     
   4217.4069999999992       ,   0.12464453034699977       ,   0.15554999999999999     
   4221.3640000000005       ,   0.12453365846328011       ,   0.15306000000000000     
   4225.3249999999998       ,   0.12443368284255994       ,   0.15160000000000001     
   4229.2889999999998       ,   0.12433812106754519       ,   0.15095000000000000     
   4233.2569999999996       ,   0.12425870479680941       ,   0.15013000000000001     
   4237.2290000000003       ,   0.12420930594245252       ,   0.14904000000000001     
   4241.2049999999999       ,   0.12419751161489993       ,   0.14962000000000000     
   4245.1830000000000       ,   0.12422609651460953       ,   0.15003000000000000     
   4249.1669999999995       ,   0.12429618358812893       ,   0.15159000000000000     
   4253.1530000000002       ,   0.12440932250396716       ,   0.15301000000000001     
   4257.1430000000000       ,   0.12456930611040892       ,   0.15337000000000001     
   4261.1369999999997       ,   0.12477630222631372       ,   0.15426000000000001     
   4265.1360000000004       ,   0.12501735573658077       ,   0.15612999999999999     
   4269.1379999999999       ,   0.12526484517648709       ,   0.15844000000000000     
   4273.1430000000000       ,   0.12548150898705546       ,   0.16150000000000000     
   4277.1530000000002       ,   0.12562003990660942       ,   0.16567999999999999     
   4281.1660000000002       ,   0.12563530441191678       ,   0.16775999999999999     
   4285.1819999999998       ,   0.12553661135109134       ,   0.16661000000000001     
   4289.2029999999995       ,   0.12540040766208985       ,   0.16253000000000001     
   4293.2269999999999       ,   0.12530413869382240       ,   0.15831000000000001     
   4297.2560000000003       ,   0.12527845758735090       ,   0.15833000000000000     
   4301.2870000000003       ,   0.12530950101266844       ,   0.16109000000000001     
   4305.3229999999994       ,   0.12535783116549853       ,   0.16341000000000000     
   4309.3630000000003       ,   0.12537611934043441       ,   0.16603000000000001     
   4313.4050000000007       ,   0.12534765036465953       ,   0.16533999999999999     
   4317.4520000000002       ,   0.12531126459352804       ,   0.16216000000000000     
   4321.5029999999997       ,   0.12531866233772307       ,   0.15789000000000000     
   4325.5580000000000       ,   0.12538458303505268       ,   0.15504000000000001     
   4329.6170000000002       ,   0.12548054214088591       ,   0.15440999999999999     
   4333.6790000000001       ,   0.12554944076026384       ,   0.15440000000000001     
   4337.7449999999999       ,   0.12551669179908265       ,   0.15589000000000000     
   4341.8150000000005       ,   0.12532768332673738       ,   0.15587000000000001     
   4345.8880000000008       ,   0.12500672465187759       ,   0.15429999999999999     
   4349.9660000000003       ,   0.12464631944755317       ,   0.14948000000000000     
   4354.0469999999996       ,   0.12432834281893408       ,   0.14521000000000001     
   4358.1320000000005       ,   0.12408930058161023       ,   0.14285999999999999     
   4362.2209999999995       ,   0.12393037410480602       ,   0.14127000000000001     
   4366.3140000000003       ,   0.12383802859959818       ,   0.14127000000000001     
   4370.4110000000001       ,   0.12379830925675797       ,   0.14157000000000000     
   4374.5120000000006       ,   0.12380161028911550       ,   0.14202999999999999     
   4378.6160000000000       ,   0.12384155067887423       ,   0.14405000000000001     
   4382.7239999999993       ,   0.12391283759414332       ,   0.14258999999999999     
   4386.8359999999993       ,   0.12401054066706986       ,   0.14230999999999999     
   4390.9520000000002       ,   0.12413167176169300       ,   0.14413000000000001     
   4395.0720000000001       ,   0.12427865065517323       ,   0.14751000000000000     
   4399.1949999999997       ,   0.12445531927099658       ,   0.14929999999999999     
   4403.3230000000003       ,   0.12467798213181785       ,   0.14992000000000000     
   4407.4540000000006       ,   0.12497893217428301       ,   0.15010000000000001     
   4411.5889999999999       ,   0.12539018968334842       ,   0.14938000000000001     
   4415.7289999999994       ,   0.12590806627091380       ,   0.14927000000000001     
   4419.8719999999994       ,   0.12648079783660818       ,   0.15495000000000000     
   4424.0180000000000       ,   0.12702541143780255       ,   0.16427000000000000     
   4428.1689999999999       ,   0.12744036541244824       ,   0.17324999999999999     
   4432.3240000000005       ,   0.12761032512909939       ,   0.18099999999999999     
   4436.4830000000002       ,   0.12749241110289902       ,   0.18154999999999999     
   4440.6459999999997       ,   0.12721898549320715       ,   0.17599999999999999     
   4444.8109999999997       ,   0.12699927236685130       ,   0.16797999999999999     
   4448.9809999999998       ,   0.12695266780101380       ,   0.16335000000000000     
   4453.1559999999999       ,   0.12706528561326688       ,   0.16102000000000000     
   4457.3340000000007       ,   0.12723394432942708       ,   0.16052000000000000     
   4461.5159999999996       ,   0.12731085533764844       ,   0.16411999999999999     
   4465.7020000000002       ,   0.12713812961051346       ,   0.16506000000000001     
   4469.8930000000000       ,   0.12665837027842983       ,   0.16261999999999999     
   4474.0859999999993       ,   0.12599676613276159       ,   0.15962000000000001     
   4478.2830000000004       ,   0.12534400918966734       ,   0.15318000000000001     
   4482.4859999999999       ,   0.12482217326841587       ,   0.14820000000000000     
   4486.6910000000007       ,   0.12446452596082784       ,   0.14535000000000001     
   4490.9009999999998       ,   0.12425330516454577       ,   0.14318000000000000     
   4495.1140000000005       ,   0.12416083609734005       ,   0.14291999999999999     
   4499.3320000000003       ,   0.12417036084490131       ,   0.14318000000000000     
   4503.5529999999999       ,   0.12428158204203311       ,   0.14302999999999999     
   4507.7780000000002       ,   0.12450269142364809       ,   0.14279000000000000     
   4512.0079999999998       ,   0.12483285472120299       ,   0.14224000000000001     
   4516.2420000000002       ,   0.12524383525456231       ,   0.14523000000000000     
   4520.4790000000003       ,   0.12568353724932027       ,   0.14729999999999999     
   4524.7200000000003       ,   0.12608540944264426       ,   0.15246999999999999     
   4528.9659999999994       ,   0.12637294782494779       ,   0.15872000000000000     
   4533.2150000000001       ,   0.12646892411274502       ,   0.16214000000000001     
   4537.4679999999998       ,   0.12637924586669336       ,   0.16144000000000000     
   4541.7249999999995       ,   0.12624713855303599       ,   0.15734000000000001     
   4545.9849999999997       ,   0.12623958233663912       ,   0.15407999999999999     
   4550.2510000000002       ,   0.12642481854800447       ,   0.15393000000000001     
   4554.5210000000006       ,   0.12675590172218112       ,   0.15898000000000001     
   4558.7939999999999       ,   0.12711596486521562       ,   0.16627000000000000     
   4563.0709999999999       ,   0.12735673001875430       ,   0.17358000000000001     
   4567.3530000000001       ,   0.12731776831364483       ,   0.18068999999999999     
   4571.6379999999999       ,   0.12693026764697143       ,   0.18032000000000001     
   4575.9269999999997       ,   0.12632709522572921       ,   0.17316000000000001     
   4580.2209999999995       ,   0.12573356448786208       ,   0.16447999999999999     
   4584.5180000000000       ,   0.12529600811233271       ,   0.15651000000000001     
   4588.8199999999997       ,   0.12504072699368227       ,   0.14990000000000001     
   4593.1250000000000       ,   0.12491752335350505       ,   0.14646999999999999     
   4597.4349999999995       ,   0.12484824852808223       ,   0.14383000000000001     
   4601.7479999999996       ,   0.12475189290192269       ,   0.14263999999999999     
   4606.0650000000005       ,   0.12457140348631404       ,   0.14190000000000000     
   4610.3870000000006       ,   0.12431685183551254       ,   0.14061999999999999     
   4614.7129999999997       ,   0.12404977783824801       ,   0.13804000000000000     
   4619.0420000000004       ,   0.12382368011016220       ,   0.13575999999999999     
   4623.3760000000002       ,   0.12365901251435010       ,   0.13572999999999999     
   4627.7139999999999       ,   0.12355283195606100       ,   0.13675999999999999     
   4632.0560000000005       ,   0.12349567668703032       ,   0.13628999999999999     
   4636.4020000000000       ,   0.12347644171612621       ,   0.13611000000000001     
   4640.7520000000004       ,   0.12349441915523857       ,   0.13816000000000001     
   4645.1059999999998       ,   0.12355354866494517       ,   0.13914000000000001     
   4649.4639999999999       ,   0.12366023276892996       ,   0.13997000000000001     
   4653.8260000000000       ,   0.12381841540469296       ,   0.14190000000000000     
   4658.1939999999995       ,   0.12402325525207733       ,   0.14352999999999999     
   4662.5639999999994       ,   0.12425490508891109       ,   0.14544000000000001     
   4666.9380000000001       ,   0.12448097279798637       ,   0.14871000000000001     
   4671.3170000000000       ,   0.12466162517833547       ,   0.15271000000000001     
   4675.6999999999998       ,   0.12475083688989079       ,   0.15673999999999999     
   4680.0879999999997       ,   0.12472394081689141       ,   0.15890000000000001     
   4684.4780000000001       ,   0.12463421448873220       ,   0.15645999999999999     
   4688.8730000000005       ,   0.12458921936633521       ,   0.15311000000000000     
   4693.2729999999992       ,   0.12466714549881502       ,   0.15014000000000000     
   4697.6760000000004       ,   0.12487627300905263       ,   0.15082999999999999     
   4702.0839999999998       ,   0.12516460081235745       ,   0.15501000000000001     
   4706.4949999999999       ,   0.12544725581483865       ,   0.16420000000000001     
   4710.9110000000001       ,   0.12562464935075829       ,   0.17377000000000001     
   4715.3310000000001       ,   0.12558861975810059       ,   0.17957000000000001     
   4719.7550000000001       ,   0.12529329848014847       ,   0.17782999999999999     
   4724.1840000000002       ,   0.12483189216436184       ,   0.17110000000000000     
   4728.6160000000000       ,   0.12435644477282187       ,   0.16092999999999999     
   4733.0529999999999       ,   0.12396544369688781       ,   0.15178000000000000     
   4737.4929999999995       ,   0.12368475318528643       ,   0.14570000000000000     
   4741.9380000000001       ,   0.12349734596573757       ,   0.14230000000000001     
   4746.3870000000006       ,   0.12337496985217704       ,   0.13875999999999999     
   4750.8400000000001       ,   0.12329475772787504       ,   0.13632000000000000     
   4755.2979999999998       ,   0.12324354747537043       ,   0.13469999999999999     
   4759.7600000000002       ,   0.12321553768856176       ,   0.13405000000000000     
   4764.2249999999995       ,   0.12320889186426998       ,   0.13389000000000001     
   4768.6949999999997       ,   0.12322340721931699       ,   0.13370000000000001     
   4773.1700000000001       ,   0.12325685444910191       ,   0.13416000000000000     
   4777.6480000000001       ,   0.12330474490643947       ,   0.13471000000000000     
   4782.1309999999994       ,   0.12335876474326712       ,   0.13642000000000001     
   4786.6169999999993       ,   0.12340809693791847       ,   0.13805999999999999     
   4791.1089999999995       ,   0.12344014227351900       ,   0.14033000000000001     
   4795.6040000000003       ,   0.12344193156430314       ,   0.14283000000000001     
   4800.1030000000001       ,   0.12341264037167597       ,   0.14315000000000000     
   4804.6070000000000       ,   0.12337178969020961       ,   0.14213000000000001     
   4809.1140000000005       ,   0.12334403557342849       ,   0.14105999999999999     
   4813.6260000000002       ,   0.12334400018044533       ,   0.13869000000000001     
   4818.1419999999998       ,   0.12337269708380105       ,   0.13755000000000001     
   4822.6639999999998       ,   0.12342067376875755       ,   0.13630000000000000     
   4827.1879999999992       ,   0.12347357422440539       ,   0.13481000000000001     
   4831.7180000000008       ,   0.12351618267861150       ,   0.13506000000000001     
   4836.2510000000002       ,   0.12353464895760016       ,   0.13627000000000000     
   4840.7879999999996       ,   0.12353140723368922       ,   0.13469999999999999     
   4845.3299999999999       ,   0.12353695053229997       ,   0.13345000000000001     
   4849.8760000000002       ,   0.12359452781921983       ,   0.13450999999999999     
   4854.4270000000006       ,   0.12373088556307076       ,   0.13653000000000001     
   4858.9820000000000       ,   0.12394496323960490       ,   0.13722999999999999     
   4863.5400000000009       ,   0.12420865810315550       ,   0.14124999999999999     
   4868.1030000000001       ,   0.12447640952339281       ,   0.14351000000000000     
   4872.6710000000003       ,   0.12469459482132782       ,   0.14763999999999999     
   4877.2420000000002       ,   0.12480427884697229       ,   0.15250000000000000     
   4881.8180000000002       ,   0.12477782204804838       ,   0.15386000000000000     
   4886.3990000000003       ,   0.12469203069097666       ,   0.15268000000000001     
   4890.9840000000004       ,   0.12469832059835412       ,   0.14951000000000000     
   4895.5719999999992       ,   0.12492010347263029       ,   0.14879000000000001     
   4900.1659999999993       ,   0.12539766772172328       ,   0.14857999999999999     
   4904.7629999999999       ,   0.12607706540357222       ,   0.15012000000000000     
   4909.3649999999998       ,   0.12682793134230438       ,   0.15673999999999999     
   4913.9710000000005       ,   0.12747649777957029       ,   0.16725000000000001     
   4918.5819999999994       ,   0.12781492744893841       ,   0.17494999999999999     
   4923.1970000000001       ,   0.12763313576625737       ,   0.17743999999999999     
   4927.8159999999998       ,   0.12691740593808809       ,   0.17394999999999999     
   4932.4389999999994       ,   0.12594621425844588       ,   0.16472000000000001     
   4937.0670000000000       ,   0.12503543060075573       ,   0.15425000000000000     
   4941.6989999999996       ,   0.12434214007425172       ,   0.14702000000000001     
